Time,Temp,RH
0.0,13.8247784675,15.068699507
30.0,13.4795965349,16.2976449654
60.0,13.1057383623,16.9806018763
90.0,12.4400227818,18.7326012231
120.0,12.1751550823,19.3742198669
150.0,11.743354037,20.1624812726
180.0,11.7699668518,20.0887432772
210.0,11.9316370531,20.1766085463
240.0,11.9640652659,20.0799671472
270.0,12.1375997013,19.7359019833
300.0,12.385080238,18.6939509972
330.0,12.960956575,17.2439392097
360.0,13.7308513694,15.3847053733
390.0,14.6200936002,13.1112960484
420.0,15.6956954279,10.6427158328
450.0,16.7252627207,7.85609950346
480.0,17.8747162816,4.94726181063
510.0,18.8464342565,2.16250322976
540.0,20.1191325054,-0.875103223734
570.0,21.2056549263,-3.64307118666
600.0,21.9821934818,-5.77985263342
630.0,23.3449449156,-7.95834598211
660.0,24.3730746011,-9.9364082631
690.0,24.7794340954,-11.3477195478
720.0,24.8046645903,-11.7944979251
750.0,25.0076057435,-12.326586709
780.0,25.3944849856,-12.0761199667
810.0,24.6795013561,-11.5083509619
840.0,24.4237665266,-10.5532735642
870.0,23.8225748489,-9.25661002338
900.0,22.5601184879,-7.52877286798
930.0,21.1938472929,-5.86747296131
960.0,19.8272969828,-4.217458714
990.0,17.6862066839,-2.11043583628
1020.0,15.7102283198,-0.697968128444
1050.0,16.3469558392,2.04840274274
1080.0,14.3265830384,2.93926401253
1110.0,13.3254922912,7.74074728087
1140.0,12.4987046001,9.257413554
1170.0,13.2353742516,9.8689713592
1200.0,12.8771495016,10.86758984
1230.0,11.9306466455,12.8571953436
1260.0,12.4973013851,15.0112301725
1290.0,12.687427801,15.1387180768
1320.0,13.2740431167,14.0092744385
1350.0,13.2841100594,15.588229731
1380.0,11.9951941967,16.6079589331
1410.0,12.4605291632,18.2182163626
1440.0,12.791686066,19.0831989786
1470.0,12.1249212631,19.3739867114
1500.0,12.011257395,19.5653804208
1530.0,11.2983080004,19.9000370374
1560.0,11.8322465238,22.2492532631
1590.0,12.1700871945,21.8550477564
1620.0,11.8766873986,22.9516483144
1650.0,11.6365073052,21.2095691492
1680.0,11.7084696717,20.6502716652
1710.0,12.1193589059,20.3169114439
1740.0,12.0022160919,20.385600315
1770.0,12.5970783115,18.0906161086
1800.0,13.6307785851,16.3339477186
1830.0,14.4665873555,14.334867905
1860.0,15.5120548533,11.9527083897
1890.0,16.5681157453,9.22943234567
1920.0,17.8380892901,6.54046377026
1950.0,19.1774505782,4.18637873306
1980.0,20.4653417952,1.24009761947
2010.0,21.6562411729,-0.646034992462
2040.0,22.7595917606,-3.15299425951
2070.0,23.6495203283,-6.26078214922
2100.0,24.5235029795,-6.90617562552
2130.0,25.1466966413,-6.73746960653
2160.0,25.5720080216,-8.15909727295
2190.0,25.7580834122,-6.24744165389
2220.0,25.7199161393,-5.8409547974
2250.0,25.4675358203,-5.03681347244
2280.0,25.022597569,-3.48911140966
2310.0,24.4014982344,-1.87310513045
2340.0,23.66421991,0.133876497173
2370.0,22.8221302781,0.744655308925
2400.0,21.9183623774,2.30557140874
2430.0,20.9901365077,3.10290517416
2460.0,20.0758074446,5.24275492085
2490.0,19.1989203489,6.84626748609
2520.0,18.3905809739,7.76467513732
2550.0,17.6656991438,8.07752734316
2580.0,17.034565286,10.9338271312
2610.0,16.4922727661,12.1971971989
2640.0,16.0243187002,12.8344075132
2670.0,15.6535671604,12.1955633507
2700.0,15.3440958948,9.94965353066
2730.0,15.0663356562,12.6474231043
2760.0,14.817188777,13.860333287
2790.0,14.571601923,14.7917981326
2820.0,14.3166489318,13.2615718522
2850.0,14.043089555,14.3113010017
2880.0,13.7466517606,15.6873922023
2910.0,13.4295550371,18.4987036932
2940.0,13.1007370505,19.7202828024
2970.0,12.7750225942,18.5185243921
3000.0,12.4727334416,19.5893340855
3030.0,12.2180401968,19.9215699698
3060.0,12.0374571709,20.2597268681
3090.0,11.9575987399,21.0126425389
3120.0,12.0034556804,22.1440142107
3150.0,12.1962297709,21.6874863208
3180.0,12.5513844556,20.5538244564
3210.0,13.076843359,17.4714833077
3240.0,13.7729793754,15.6122902769
3270.0,14.630682886,13.6950362904
3300.0,15.6316880941,11.2752111943
3330.0,16.7495761275,9.13515206036
3360.0,17.9509482228,9.86608458953
3390.0,19.1959615631,6.8191017276
3420.0,20.4413351715,4.38381179827
3450.0,21.6421934418,1.43508208908
3480.0,22.7544750478,-0.943924827701
3510.0,23.7374078447,-3.63367453134
3540.0,24.5552767111,-4.82225230536
3570.0,25.1798996112,-5.28442695082
3600.0,25.5918379517,-5.59625630631
3630.0,25.7810649469,-5.56692341765
3660.0,25.7477366803,-7.07962227305
3690.0,25.5013595768,-7.23629932227
3720.0,25.062414855,-5.87381793114
3750.0,24.4559236089,-5.93991039124
3780.0,23.7145930509,-6.77708256481
3810.0,22.8749149885,-3.84003509311
3840.0,21.9747953788,-0.972630776769
3870.0,21.0517183632,0.756816922104
3900.0,20.1398407337,1.09179766406
3930.0,19.2693200506,2.23775519457
3960.0,18.4637739205,3.49908535358
3990.0,17.7398899556,4.0377549277
4020.0,17.1067576437,4.94163361874
4050.0,16.5657513326,6.31627962783
4080.0,16.1114329314,7.19749489514
4110.0,15.7324152804,7.59521534355
4140.0,15.4141371763,8.46049171838
4170.0,15.1370512358,9.45116829642
4200.0,14.8831125475,10.1757331574
4230.0,14.6337992986,11.7225217463
4260.0,14.3760059473,13.6630225056
4290.0,14.0990456685,16.3663685622
4320.0,13.798414074,18.7526108877
4350.0,13.4766726182,21.1880617492
4380.0,13.1435913184,22.2587545269
4410.0,12.8128314419,25.1274759623
4440.0,12.5053266922,24.4541245711
4470.0,12.2437368759,26.2385337698
4500.0,12.0580730879,24.5389166244
4530.0,11.972098369,26.7121036008
4560.0,12.0113893994,28.3341841519
4590.0,12.197219376,29.9093398802
4620.0,12.5453274023,32.8761506949
4650.0,13.063659901,27.3643057815
4680.0,13.7523636649,26.1398377831
4710.0,14.6023646863,22.8863854774
4740.0,15.5955825072,22.7805404417
4770.0,16.7059136153,20.0149670456
4800.0,17.8996868929,16.0443228075
4830.0,19.1370362088,11.7440487367
4860.0,20.3748275815,9.9391173714
4890.0,21.5680947381,10.5562087346
4920.0,22.6730912713,9.3924069673
4950.0,23.6486957864,5.60940928366
4980.0,24.4595210466,5.2184927661
5010.0,25.0772874912,2.19824737618
5040.0,25.4826574728,3.82256189396
5070.0,25.665602147,-1.04606504863
5100.0,25.6262927943,1.31934746783
5130.0,25.3747872309,2.54302090628
5160.0,24.9299820194,4.80222448914
5190.0,24.3183574714,3.9248483127
5220.0,23.5724573274,2.56510500542
5250.0,22.7286080506,7.07389213376
5280.0,21.8247781485,7.87393672997
5310.0,20.8982313759,10.8874818434
5340.0,19.9834904689,8.9952602244
5370.0,19.1105028215,10.2018435929
5400.0,18.3029377286,15.4248891491
5430.0,17.5776032788,12.8907311232
5460.0,16.942897656,16.2253501523
5490.0,16.3990275002,14.1472213974
5520.0,15.9452586163,13.1063902775
5550.0,15.5691911904,15.3750491413
5580.0,15.2509394518,14.2310547134
5610.0,14.9763986805,18.9160699294
5640.0,14.7226314564,17.6259061866
5670.0,14.4719182146,20.2516656204
5700.0,14.2109496584,20.0784803306
5730.0,13.9336376702,22.230203209
5760.0,13.635519511,25.2668772236
5790.0,13.3276513939,25.2763266151
5820.0,13.0028427245,24.2622083184
5850.0,12.6593530916,27.0195188777
5880.0,12.3148707785,27.0194357304
5910.0,11.9418465734,30.4584830523
5940.0,11.9110790321,29.2837553299
5970.0,11.8284883945,29.991554399
6000.0,11.8829654096,29.7676992606
6030.0,12.093317288,29.8299432892
6060.0,12.4350411957,28.205662828
6090.0,12.9138897107,27.5530456715
6120.0,13.6394851364,26.6206213392
6150.0,14.5206102827,27.9616682754
6180.0,15.447271604,22.3554782292
6210.0,15.9785874252,24.9417376759
6240.0,17.0430191559,23.6932039374
6270.0,17.085615893,19.8364174875
6300.0,19.5255065974,18.2087855893
6330.0,20.1065401583,12.3974454605
6360.0,21.9856219761,14.3867358041
6390.0,22.7700187457,10.9022610332
6420.0,23.746072016,8.9848764342
6450.0,24.425658035,6.16499867314
6480.0,25.1423746862,9.28364086392
6510.0,25.3978250465,9.80908664504
6540.0,25.4796717785,9.18069024207
6570.0,25.1942245427,8.54655931408
6600.0,24.8058830079,12.6437434762
6630.0,24.1133681603,13.1532524385
6660.0,23.3812457322,15.5662212472
6690.0,22.0664078912,15.7667902566
6720.0,20.9088681785,21.6735675015
6750.0,20.1187196443,23.1152166324
6780.0,19.0334446045,27.1670979318
6810.0,18.2668507929,28.0689269174
6840.0,17.6359791473,35.8667842341
6870.0,16.7208840346,37.187002075
6900.0,15.6911775943,40.8030802412
6930.0,14.7451167383,44.275514106
6960.0,15.2678179669,40.1786050606
6990.0,14.8925568359,44.8423478269
7020.0,15.1806987467,40.3573347058
7050.0,14.9958732898,41.9512151276
7080.0,14.7432079557,43.4049039534
7110.0,14.4357976586,45.0994353241
7140.0,13.6602040781,46.514318739
7170.0,13.0818100938,48.3952389066
7200.0,12.924592087,48.6113316104
7230.0,12.5778240243,48.5763397979
7260.0,11.9647777643,49.1826061217
7290.0,11.699347774,47.2635821666
7320.0,11.7332405326,42.9260177081
7350.0,11.2821961826,43.841112636
7380.0,11.6732290261,44.4166545933
7410.0,11.1578617536,47.7941980753
7440.0,11.2514569269,47.4591304427
7470.0,11.185957682,46.0507132599
7500.0,12.2024889454,47.7145403324
7530.0,12.7105828342,48.5290185854
7560.0,13.0969868505,45.238867477
7590.0,13.7468031013,43.0340157446
7620.0,14.4116217339,40.3621096125
7650.0,14.9308831022,39.1036799699
7680.0,15.2157470317,37.4407783451
7710.0,16.3728557499,31.855910762
7740.0,18.4809907235,28.318329173
7770.0,20.3294902636,27.0999412565
7800.0,21.8774106212,22.0721422958
7830.0,22.9619544491,16.6576143325
7860.0,24.1692688924,13.1018457355
7890.0,24.3435862101,11.4371241436
7920.0,24.7977811564,11.1235038854
7950.0,24.6413706131,11.3516774218
7980.0,25.0086577339,9.82691810043
8010.0,22.9978135348,10.2762815078
8040.0,22.5736743564,10.8571450808
8070.0,22.5279868228,15.2221113124
8100.0,21.1292953977,16.7674003525
8130.0,19.8082000062,18.4197422928
8160.0,19.5274012595,17.3734707619
8190.0,18.3823533874,18.4524042838
8220.0,19.0806067541,20.1528826345
8250.0,16.8924272794,22.6008982732
8280.0,16.1020276476,26.5151820921
8310.0,13.5212476941,27.685830283
8340.0,12.3640033769,31.9238261922
8370.0,11.3596179877,36.2128626305
8400.0,10.5498584811,39.1488920706
8430.0,8.92235983616,44.6303767674
8460.0,8.87122754192,43.5196481316
8490.0,8.34889939038,45.3300618764
8520.0,8.60429080859,46.396183856
8550.0,8.39290402453,43.8437174413
8580.0,8.45326306414,44.8418746601
8610.0,8.48522355182,46.5256854679
8640.0,10.4118812793,46.2203241851
8670.0,9.93594675509,44.7855477981
8700.0,10.431486189,43.347872639
8730.0,10.1137311143,42.3581748293
8760.0,9.4861712126,44.787223871
8790.0,7.53117669858,46.0194834187
8820.0,7.28185423415,46.669506102
8850.0,6.99634590357,46.8229994782
8880.0,7.52875166107,43.0041227041
8910.0,8.6822109706,41.38753416
8940.0,9.08995232886,42.3138208035
8970.0,8.73384681374,41.0742948481
9000.0,9.06462093551,40.1159846211
9030.0,9.59577371138,38.423101013
9060.0,9.2408197946,32.3022122132
9090.0,11.0179105828,33.1897162618
9120.0,11.3902231809,27.3915470392
9150.0,12.1663673625,25.1225911935
9180.0,13.5605479508,18.275975672
9210.0,15.2908542663,17.6497188291
9240.0,15.9013084106,14.4619158967
9270.0,16.5901158809,12.127353451
9300.0,17.9076515302,10.2545041672
9330.0,18.5477891653,8.32136090585
9360.0,19.380835136,7.90687529828
9390.0,20.1706854469,8.29099635864
9420.0,21.468155709,4.0025671145
9450.0,21.8424127652,1.01094136319
9480.0,22.0050189683,4.31352553675
9510.0,19.5707865092,3.52532185833
9540.0,18.3395995268,5.822244606
9570.0,17.3342673005,9.46564659329
9600.0,15.9727426301,6.48531687961
9630.0,15.4546777188,9.28479485322
9660.0,15.0340890693,14.6254280904
9690.0,14.0741948808,16.4743561505
9720.0,13.334876215,16.4690428197
9750.0,12.3422242381,20.7457790848
9780.0,12.0648636221,20.5228476877
9810.0,11.8246992753,21.9933185836
9840.0,13.4417794947,23.3570946804
9870.0,13.0152411279,24.4553852933
9900.0,14.0849090483,25.1928273784
9930.0,14.4055131134,24.9676507431
9960.0,13.7008220972,24.1860203472
9990.0,12.9921079407,23.1431126686
10020.0,13.8365098874,20.3745411982
10050.0,13.817224456,24.2954516551
10080.0,13.5295146689,23.6383675003
10110.0,13.2167182018,23.8684294594
10140.0,12.7869233176,27.2612276961
10170.0,12.58682694,26.8650872434
10200.0,12.2375499,30.9709310126
10230.0,12.0211912129,33.0021862234
10260.0,11.8082987265,33.5090685525
10290.0,11.7494371517,31.899339198
10320.0,11.7949003851,36.6674804262
10350.0,11.9481407779,38.0200125066
10380.0,12.3018716023,35.238574439
10410.0,12.8159589156,35.0657280858
10440.0,13.3777786923,36.866240992
10470.0,14.2579409574,32.2800004968
10500.0,15.2411373423,28.795473364
10530.0,16.4146136811,29.4566969734
10560.0,17.6035185295,26.5907818835
10590.0,18.9113719433,23.3039650876
10620.0,20.158846099,20.925642496
10650.0,21.3819828439,14.3763218621
10680.0,22.5036266795,9.1383494558
10710.0,23.373967404,6.82035310686
10740.0,24.1330510697,5.3798468692
10770.0,24.644660846,3.46627759263
10800.0,24.9294895871,2.72076165258
10830.0,25.2582353077,3.93255178791
10860.0,24.6808679962,3.52552309985
10890.0,23.4599085046,3.68097183339
10920.0,23.0577782199,2.41120278506
10950.0,22.1015135849,2.83685252577
10980.0,21.185616282,5.05871889656
11010.0,19.7799033107,6.96269278537
11040.0,19.9878730906,9.88011530009
11070.0,19.9586600383,10.3168361183
11100.0,19.3981567466,12.1056201057
11130.0,18.7920956938,11.2960665238
11160.0,18.0645158396,15.075817579
11190.0,17.3174914549,15.2705816828
11220.0,16.6413775407,17.493135929
11250.0,16.2411201847,21.1202574385
11280.0,15.7855299236,18.133056703
11310.0,15.4162695217,21.2472810673
11340.0,15.0990071633,22.4547331724
11370.0,14.8244688861,23.3908728011
11400.0,14.5729850388,24.3184055477
11430.0,14.3232221015,26.6080356952
11460.0,14.0710346782,28.6736338233
11490.0,13.7972416212,27.9320951129
11520.0,13.502226568,32.0502455478
11550.0,13.1824916499,35.1620143253
11580.0,12.8518734757,34.3955416738
11610.0,12.5204645385,37.9233455669
11640.0,12.2264430428,37.3945883989
11670.0,11.9634660666,41.0426016996
11700.0,11.7800062019,43.5563526382
11730.0,11.7080248698,44.2129167155
11760.0,11.7556850379,42.468809334
11790.0,11.92360652,46.0052295623
11820.0,12.1523084756,45.4588199231
11850.0,12.7453613669,46.7918211491
11880.0,13.4215064877,44.9219632661
11910.0,14.2694763322,42.8367252698
11940.0,15.3460701177,37.5134752905
11970.0,16.4070017252,36.9434373557
12000.0,17.5309025467,34.7296678866
12030.0,18.2800678138,31.2563292598
12060.0,19.8900356626,30.2893400923
12090.0,20.6973127983,26.6537781074
12120.0,21.9588046266,28.304193749
12150.0,23.2842398929,24.6110283813
12180.0,24.179529992,22.8212829175
12210.0,24.700000137,19.366222761
12240.0,25.2042345398,20.3264417198
12270.0,25.3255303738,20.2332606177
12300.0,25.2841099508,22.7419084915
12330.0,25.1376010267,23.474566458
12360.0,24.6215901069,23.0475843491
12390.0,23.7154003765,26.6396601274
12420.0,23.1923614237,29.1027756137
12450.0,22.4699656053,27.7025368179
12480.0,21.5339600085,31.4215613337
12510.0,20.4652809819,31.7310822188
12540.0,19.6707766691,35.0720116334
12570.0,18.3068861304,36.6314547922
12600.0,17.5315455219,37.1183204204
12630.0,16.9481536269,36.5004106834
12660.0,16.6003660481,36.6968275299
12690.0,16.1862633458,36.7939833048
12720.0,15.7968900005,36.2112122125
12750.0,15.3281452826,38.3400019135
12780.0,15.005423037,38.3171720228
12810.0,14.7402297729,39.6637261448
12840.0,14.4883031368,39.6000071075
12870.0,13.6959638604,40.5053171072
12900.0,13.1450801469,46.8815888722
12930.0,12.3377117069,47.4328668031
12960.0,11.5763649442,50.8615934218
12990.0,10.2622777407,59.5102687095
13020.0,11.3355069454,59.6467263014
13050.0,10.0862669555,59.0234955567
13080.0,10.5472409603,55.1763919982
13110.0,10.1775145581,56.6326097531
13140.0,9.74004304142,57.1939608723
13170.0,10.4056243415,59.4517959214
13200.0,9.5069419327,60.2656445266
13230.0,10.1327452905,60.2270012017
13260.0,9.7061870713,60.1076894433
13290.0,9.54013463873,61.2918075438
13320.0,10.1965007299,57.7783589177
13350.0,10.9399782216,56.9104223588
13380.0,10.986167093,62.9787241112
13410.0,10.8906692517,64.4531594823
13440.0,12.2922304939,71.551818455
13470.0,13.7506227363,61.865371599
13500.0,15.3116342673,62.9505633001
13530.0,15.8864079445,57.0880814616
13560.0,16.1137362606,51.1733988809
13590.0,16.9631531153,59.0949021529
13620.0,17.3407375728,60.0023056897
13650.0,17.1163833432,57.6826601409
13680.0,17.6050070006,56.3935593794
13710.0,18.9043791179,48.7269413178
13740.0,18.8330461697,41.2363688657
13770.0,18.6369026128,35.6699681949
13800.0,18.9744392847,34.191987277
13830.0,18.5777492464,29.7096412073
13860.0,18.8890486091,28.4681089187
13890.0,17.2894835851,31.3729956379
13920.0,15.257695247,34.6746344843
13950.0,14.6055658209,33.5601887492
13980.0,14.3418914465,29.9456069508
14010.0,13.9065494663,34.6451101092
14040.0,13.512264846,32.6193808971
14070.0,14.6321744394,33.5211837698
14100.0,12.5660299852,36.7407768114
14130.0,11.1881481813,39.3446306338
14160.0,11.453241104,40.8277724797
14190.0,10.3964433828,41.0700768037
14220.0,9.4203687924,42.7478565956
14250.0,8.66912607911,42.2050738889
14280.0,8.18042669467,43.7027651208
14310.0,7.12405995148,47.0867644158
14340.0,6.70769866808,47.4450013631
14370.0,6.70899943514,49.8960575085
14400.0,6.32857887009,49.6627593129
14430.0,5.5870594747,47.1962033809
14460.0,5.88653619578,47.4014642769
14490.0,6.46025789317,47.7161117428
14520.0,6.14489077044,47.0011314971
14550.0,4.74618449825,48.6343630295
14580.0,4.53657403732,51.640871863
14610.0,4.00139460709,56.3282188237
14640.0,3.2589907132,59.5094693414
14670.0,3.30346534564,56.6453072458
14700.0,4.30420187065,54.1239665526
14730.0,4.88097413586,53.7117139915
14760.0,6.20655389057,49.8311725459
14790.0,7.87590295784,49.031161008
14820.0,7.99705536585,46.562702968
14850.0,8.78565414004,44.950701254
14880.0,9.95982490122,41.9110010179
14910.0,10.420108183,42.5783235001
14940.0,11.4548203189,36.9792083221
14970.0,12.2671652041,35.3185544352
15000.0,14.1831446849,29.3573559503
15030.0,14.9972554434,28.5604791501
15060.0,15.8097695101,27.6291084044
15090.0,16.6922121019,27.5485642066
15120.0,16.9407244619,25.9395450925
15150.0,16.6265024788,27.2373040475
15180.0,17.5035830672,26.2008878675
15210.0,18.0392107749,26.5219476285
15240.0,18.2180534698,28.3526848096
15270.0,17.1945278904,30.4717951828
15300.0,16.9131570257,33.6093378455
15330.0,15.8538763449,48.0059672571
15360.0,14.5770194927,50.5473978678
15390.0,13.8054308147,60.3736722851
15420.0,11.8992455912,65.3824169309
15450.0,10.552844655,66.4527262462
15480.0,10.6552428785,64.3435317135
15510.0,10.053354304,58.727774978
15540.0,9.37172571063,70.5910463954
15570.0,8.27864408638,66.0514486959
15600.0,7.65411684957,73.4017572064
15630.0,6.82194237666,74.1863673904
15660.0,6.98889192137,76.6122408978
15690.0,6.6594011603,70.8460419378
15720.0,6.40445417269,65.7603251518
15750.0,5.86430174338,61.2028384125
15780.0,5.75972902712,61.4408345645
15810.0,4.93158873117,60.9903233605
15840.0,4.52456063423,62.6812656721
15870.0,3.26406958464,67.7798586766
15900.0,2.89742785589,59.8774995689
15930.0,2.36474288409,73.3730392495
15960.0,2.37669778811,69.7429046555
15990.0,1.52778446926,76.8810229334
16020.0,2.9325504357,71.5749952731
16050.0,1.53022657828,68.8339622877
16080.0,1.05225592988,81.2432573436
16110.0,1.56188782369,78.9999070041
16140.0,0.524044041594,88.3575330576
16170.0,0.51022128076,87.1054164805
16200.0,2.0775230758,92.5154599902
16230.0,1.88015578571,93.0204386891
16260.0,2.34372842207,92.0441525429
16290.0,3.63349265335,91.7368758665
16320.0,5.07360234355,87.1324661771
16350.0,6.97541321184,85.1834220739
16380.0,8.93308292959,76.8847675818
16410.0,9.9861576392,75.6208045366
16440.0,11.6672415241,69.6428119205
16470.0,11.1835476968,73.8252425512
16500.0,11.8506908878,69.3939337894
16530.0,13.1212119398,62.2524441595
16560.0,14.0308834462,59.7115810256
16590.0,14.878842325,55.2974172039
16620.0,15.1392145396,60.4740099015
16650.0,13.8259765643,53.4247071503
16680.0,12.8844650488,58.5753792575
16710.0,13.329310654,54.8605636871
16740.0,11.8620789859,58.6650550798
16770.0,9.12918928332,61.169943939
16800.0,9.18126955117,63.1168708763
16830.0,6.71457017816,61.4334839908
16860.0,5.58952549994,65.837934367
16890.0,4.35494043458,78.0150833683
16920.0,3.7059618735,70.3987416757
16950.0,1.81549961531,77.8568358213
16980.0,0.42846925198,77.5066978411
17010.0,-0.445556665031,77.0366644598
