Time,Temp,RH
0.0,13.8458462039,29.0532435247
30.0,13.5218765244,31.5454406744
60.0,13.1996613455,29.9359333192
90.0,12.866673866,29.0812327817
120.0,12.561303458,34.7939154756
150.0,12.3130744095,33.5094523928
180.0,12.1334494698,34.4795849814
210.0,12.0533296225,35.5602667815
240.0,12.1035382924,35.7677720009
270.0,12.2963389688,33.7362640472
300.0,12.6492583796,31.8397999323
330.0,13.1679448362,31.493960933
360.0,13.8570453855,26.7177315673
390.0,14.6547921375,27.8339095277
420.0,15.5962419902,26.969823645
450.0,16.6308310972,26.7154012264
480.0,17.7379022336,22.7930841056
510.0,19.1920579966,18.8512274597
540.0,20.5093186896,14.8579388467
570.0,21.7129180168,13.6392803019
600.0,22.8499425369,13.7008278288
630.0,23.829746003,9.21439287267
660.0,24.6532487304,5.78510529371
690.0,25.2752433195,6.51196334667
720.0,25.6854801241,6.8211039722
750.0,25.8647318706,5.30602215129
780.0,25.8416245135,9.24193684179
810.0,25.5991251327,9.81042921862
840.0,25.1574761031,7.1534225269
870.0,24.5460049802,8.46589025698
900.0,23.79942581,9.6507363619
930.0,22.9684480381,12.5298753327
960.0,22.0669291859,16.7688962795
990.0,21.1265721184,15.1396370911
1020.0,20.2331411421,16.0917493281
1050.0,19.3556442371,17.3963551686
1080.0,18.5448083774,24.1536274462
1110.0,17.7509308848,22.3631997241
1140.0,17.167474536,27.0551811756
1170.0,16.5911908217,27.1594936582
1200.0,16.1772713977,27.6019690424
1230.0,15.7727617959,25.2359266385
1260.0,15.3736981617,29.5252067956
1290.0,15.1484416137,31.6723706468
1320.0,14.7247332834,31.1401192044
1350.0,14.1699047885,36.0610179679
1380.0,13.5299186542,34.2567353846
1410.0,12.3683752458,35.2189522239
1440.0,13.112270138,41.0098590676
1470.0,12.3311132202,40.9794441614
1500.0,11.9853219689,45.0432367026
1530.0,10.6194929561,46.8559407978
1560.0,10.5262566322,46.7039499617
1590.0,9.68599642223,52.4400944666
1620.0,8.30284473062,51.0090106787
1650.0,6.91918117154,53.2760294852
1680.0,7.38654516128,55.2460975352
1710.0,6.00326244954,54.3023747788
1740.0,6.30346914398,55.3439933149
1770.0,6.72258421929,54.0397161605
1800.0,7.837630518,53.7933429313
1830.0,7.91656735901,45.9953010176
1860.0,9.28927302564,45.5738678433
1890.0,10.3547038576,38.7439979582
1920.0,10.8444828349,37.4264867072
1950.0,11.7940028589,35.5333161022
1980.0,13.7660975335,31.9705635265
2010.0,15.3587488939,26.438905004
2040.0,16.027283053,21.0362190016
2070.0,16.7519231267,17.795491918
2100.0,17.5646644774,13.7124372561
2130.0,18.1847041889,12.7964424119
2160.0,19.2810708439,13.2715730764
2190.0,19.3237676554,11.1193404976
2220.0,19.8014037956,6.70589364073
2250.0,19.6563271961,5.0751928752
2280.0,18.5563234073,9.00309945254
2310.0,18.2230705145,8.15159502896
2340.0,17.8618194383,6.01130579688
2370.0,17.1922136744,10.6820326325
2400.0,16.3055276425,10.0848387898
2430.0,14.6183219915,12.5563307274
2460.0,13.2266743464,16.0115166569
2490.0,11.2381812227,19.8771953713
2520.0,9.42616655303,23.6745442895
2550.0,9.06984958762,27.8428153314
2580.0,7.89717842308,29.5310719302
2610.0,7.35860979124,28.4182812311
2640.0,7.9889913663,27.3136314155
2670.0,6.56438823279,27.5144840493
2700.0,7.34212520143,25.3698925306
2730.0,6.68551373148,22.8350757542
2760.0,7.2461255982,22.9582479498
2790.0,7.14288827431,23.7034742081
2820.0,7.62899381268,21.9259261075
2850.0,6.61063147688,23.9323694766
2880.0,7.46354547604,26.4001922291
2910.0,6.93079521575,27.9896260302
2940.0,6.54516452023,31.3281086481
2970.0,6.30044284496,32.9865867501
3000.0,6.39078619308,31.3606217371
3030.0,6.12267741541,29.1610253298
3060.0,6.00938721563,32.9636141214
3090.0,5.33221329227,35.1131586831
3120.0,6.00224512916,33.2001953954
3150.0,6.49065769533,33.6464423687
3180.0,6.52689709578,34.2352113016
3210.0,7.15699993007,36.4318957627
3240.0,8.35840741863,33.8971035339
3270.0,8.03342148621,36.5009689616
3300.0,10.0266242045,33.895088611
3330.0,10.6438089853,31.9435958263
3360.0,11.3668828508,27.9898025639
3390.0,12.0896963236,27.2649263455
3420.0,12.785382781,26.569718316
3450.0,14.0513528977,27.5521025571
3480.0,15.1475328304,25.5295624764
3510.0,15.9288395572,24.0262196827
3540.0,16.5715143528,20.6086978896
3570.0,16.894720761,18.1185150411
3600.0,16.8322921383,17.8004483924
3630.0,16.5296359113,17.3579896029
3660.0,15.934270867,19.1790378815
3690.0,16.7357375402,17.0999849214
3720.0,15.6321335716,19.4840466333
3750.0,13.7378885717,23.2406850461
3780.0,13.6934716969,25.7210165754
3810.0,13.1224098247,25.8023417702
3840.0,12.0696075051,29.2344822097
3870.0,10.455809645,32.5914146715
3900.0,9.19931468044,34.7841469045
3930.0,7.3114863564,39.0771810498
3960.0,6.73083906296,41.657503806
3990.0,5.06688375867,43.2356966233
4020.0,5.07005920557,47.7947445878
4050.0,6.17369090001,50.4311906358
4080.0,5.50933158586,55.9245341128
4110.0,4.89712320144,52.397059304
4140.0,4.90432159863,63.4408536692
4170.0,4.56144329403,62.9002715933
4200.0,3.40644871008,71.706418666
4230.0,3.19478054669,75.6207998951
4260.0,2.26013607586,65.9258971511
4290.0,1.24222821339,84.5132723277
4320.0,1.89350208724,89.9241708467
4350.0,1.08367402008,90.8223474634
4380.0,0.530017714761,89.040226467
4410.0,-0.99546830173,95.1582372665
4440.0,0.241453880283,95.6791765521
4470.0,-0.565280502803,90.631009525
4500.0,-0.645987038242,91.7087859565
4530.0,-0.286682970567,91.0836925884
4560.0,-0.642825740988,91.8850247818
4590.0,-0.510378529439,94.7953915436
4620.0,0.0972076925663,94.4225012163
4650.0,-0.731273500253,92.9503237541
4680.0,0.464197153951,89.859304484
4710.0,1.14050431576,86.0829155633
4740.0,2.49694748581,77.6088268227
4770.0,3.01790903453,82.1651811466
4800.0,3.73453054566,74.1356304916
4830.0,5.03241789951,79.6753068144
4860.0,6.24438009901,75.9321248996
4890.0,7.41841611871,71.796051658
4920.0,8.46586504125,71.4707723622
4950.0,8.63732476537,74.32195145
4980.0,9.79157118647,72.7541283856
5010.0,10.9657812279,72.4465192463
5040.0,10.7781489916,68.9895783135
5070.0,9.92434847115,72.3223057052
5100.0,10.0562162492,73.5958290326
5130.0,9.81016667799,75.0926968192
5160.0,8.3305684709,75.908167844
5190.0,8.56063686828,77.5144181725
5220.0,8.50620185484,80.5029385753
5250.0,7.11345296102,82.5781439764
5280.0,7.11915627722,84.5342172371
5310.0,5.58257186215,86.3131541807
5340.0,5.0489906256,87.745863526
5370.0,3.41754062981,89.6686971502
5400.0,2.80225002566,91.3158852458
5430.0,0.954463246401,93.318989871
5460.0,1.53616715938,94.5031326723
5490.0,-0.283023759496,95.4681218013
5520.0,0.342076698324,96.5653659805
5550.0,-0.69343539745,97.0607212529
5580.0,-0.560980077024,97.1266472345
5610.0,-1.57580503232,98.2106838512
5640.0,-1.44074589243,98.6521797193
5670.0,-4.22542511834,99.2930582699
5700.0,-4.21797410804,98.1297639906
5730.0,-3.43942978282,98.6819092793
5760.0,-3.51886547902,96.2472616204
5790.0,-4.07052315807,94.1315800437
5820.0,-5.81486677279,99.6139718251
5850.0,-5.59683946729,97.1937476487
5880.0,-6.27027969636,96.5654124656
5910.0,-6.90216270894,96.7774551165
5940.0,-6.40186206062,97.8931986482
5970.0,-7.45574876717,99.5939701902
6000.0,-7.16852379554,104.006443564
6030.0,-7.30939754708,102.896562621
6060.0,-5.91028388785,103.236310593
6090.0,-5.247039221,102.375049368
6120.0,-4.71144987218,99.1408014783
6150.0,-4.63504140759,99.327593497
6180.0,-2.07650375813,96.2654957953
6210.0,-0.469907728725,94.5308527168
6240.0,0.526720327948,90.605417899
6270.0,0.752717829451,89.6039035775
6300.0,1.6431273358,87.470812191
6330.0,4.20699458353,85.2749181082
6360.0,7.20141183579,82.3837628087
6390.0,6.98217109408,80.9965139427
6420.0,8.40369264904,78.8795607452
6450.0,5.72471924365,78.2374897317
6480.0,6.77622384052,77.6761013386
6510.0,7.09725179426,77.3334591989
6540.0,8.08086589283,77.4352133209
6570.0,8.03800672542,78.1873267162
6600.0,8.01502158962,79.0585574814
6630.0,8.25819672591,80.5068504005
6660.0,7.37499326349,81.7033666793
6690.0,7.17483137608,83.403201427
6720.0,7.02519121774,84.7892037323
6750.0,6.55625956889,86.9906609949
6780.0,5.09172323271,88.2257842343
6810.0,4.68574843946,90.1523375911
6840.0,4.45021575408,89.7066772145
6870.0,4.00802129349,90.1406333629
6900.0,3.57177605609,90.71045836
6930.0,2.6490169753,90.5338589822
6960.0,1.91028356267,88.1552115417
6990.0,1.87300567765,88.9527974198
7020.0,0.84480999696,92.04670433
7050.0,0.0928572438459,92.594441655
7080.0,-0.570831227801,95.2783435848
7110.0,-1.28594801629,96.3275725604
7140.0,-2.29569514762,97.5077740079
7170.0,-2.94008597825,99.0271985633
7200.0,-3.18017214767,98.2890454615
7230.0,-5.37866887143,101.470774295
7260.0,-6.19523780533,102.556324567
7290.0,-8.04626043371,101.256818442
7320.0,-7.41877120984,103.780953303
7350.0,-8.10764601019,105.308178109
7380.0,-7.45244266674,104.396431725
7410.0,-5.22472230559,104.101633552
7440.0,-3.56893587077,94.6586760823
7470.0,-3.45476426565,96.7774381598
7500.0,-3.20259823359,88.1312934514
7530.0,-1.96105250236,89.7411698776
7560.0,-1.51677000004,91.4876031393
7590.0,0.0936765465477,84.2129647172
7620.0,1.48441158561,82.0918180136
7650.0,2.43888700716,83.0369585396
7680.0,4.22470269948,77.2679267924
7710.0,4.78502627472,80.4107359753
7740.0,4.27759803926,81.1275918573
7770.0,6.72610305478,82.6693096127
7800.0,9.02176374159,79.8550967371
7830.0,9.70275944482,78.7902239838
7860.0,9.86080300259,76.9998368639
7890.0,11.7751779403,73.5500239316
7920.0,12.3235157302,71.0539458661
7950.0,11.715285993,70.9457518083
7980.0,11.5408527649,74.1702907968
8010.0,10.8238003957,73.5309569407
8040.0,11.5865055324,70.9232977148
8070.0,11.5716954396,75.1712730365
8100.0,10.8985126997,69.1502109049
8130.0,9.26854488696,73.9810660712
8160.0,8.37001131633,73.90939292
8190.0,6.97489495177,73.8865862919
8220.0,6.61010193487,68.5108786127
8250.0,5.52066211544,66.1863594369
8280.0,4.94588492491,73.1383404485
8310.0,4.68809617754,75.9639072907
8340.0,4.78145103975,73.1727834166
8370.0,3.69965290988,83.8256122368
8400.0,3.94246629254,83.0293842948
8430.0,4.47942569525,84.7504024085
8460.0,5.87591595155,80.5239755209
8490.0,5.07429481835,86.7901255694
8520.0,5.62039009016,88.0018331799
8550.0,5.02637579346,92.226882476
8580.0,5.14368152142,93.3549083475
8610.0,5.5321698243,96.5491759584
8640.0,5.42836769491,97.2571697086
8670.0,4.96351977489,97.0837915058
8700.0,5.35858286321,101.728633206
8730.0,5.20993863391,103.884795018
8760.0,5.60207177128,105.152581292
8790.0,4.55003952308,106.349410096
8820.0,4.21222469723,108.204757805
8850.0,3.58521507049,108.119423364
8880.0,4.09379942376,106.861318492
8910.0,3.89552238157,105.710794198
8940.0,3.92304149375,101.604143561
8970.0,5.30821266583,101.381516682
9000.0,5.64853733506,97.1102178893
9030.0,5.37847688741,95.1247419286
9060.0,7.35049349344,91.9331667414
9090.0,8.60492010286,90.4385454205
9120.0,10.1732259168,85.9150678031
9150.0,11.6566241096,79.0464795731
9180.0,12.3992162607,75.8823426241
9210.0,13.354215015,74.7483426716
9240.0,14.8581993062,71.4372919047
9270.0,15.3826689833,70.1847435496
9300.0,15.4513222089,70.6275123231
9330.0,15.1292774101,70.8512556887
9360.0,13.3862373519,72.2958286401
9390.0,12.6871490728,74.8254449854
9420.0,12.3751052976,74.6693339789
9450.0,10.849934172,76.4618582051
9480.0,11.4639966118,78.0426326967
9510.0,10.5630255377,77.5740758516
9540.0,9.06123394476,80.0608762382
9570.0,8.38964296043,82.5904817846
9600.0,7.520211432,84.0615508378
9630.0,5.17211285027,86.3328264168
9660.0,3.575898852,87.6242185521
9690.0,0.713199626072,89.8482944614
9720.0,0.29887049861,91.9268776925
9750.0,-1.25290852328,93.3914339136
9780.0,-1.60022518684,94.4746328701
9810.0,-3.28068187341,95.2596290192
9840.0,-2.82257361616,96.2271347309
9870.0,-3.00611064358,96.2419479281
9900.0,-3.83353235735,95.700380403
9930.0,-4.85217097453,94.6701942499
9960.0,-5.0170415259,94.426083903
9990.0,-5.14192414797,96.1499685175
10020.0,-5.758061582,97.3936286964
10050.0,-6.05517176093,99.0590920188
10080.0,-6.87271495947,100.450687865
10110.0,-6.85983926643,101.309300264
10140.0,-7.17151494524,101.521406461
10170.0,-7.5855221382,103.128374272
10200.0,-7.90967334042,104.448790815
10230.0,-7.655420928,104.751197441
10260.0,-8.63625030368,105.257043716
10290.0,-8.10732807331,105.963537844
10320.0,-7.619102017,105.417875244
10350.0,-8.49833437142,105.540876944
10380.0,-7.48642980685,104.045729897
10410.0,-7.2560242717,103.519699896
10440.0,-5.50719719101,103.012953611
10470.0,-4.39717085628,101.643021586
10500.0,-4.04393332404,98.1550108553
10530.0,-3.01838985701,95.9186146799
10560.0,-0.348696966514,91.6390916214
10590.0,-0.981571485568,89.0926125961
10620.0,2.64749908843,85.1903105674
10650.0,2.95581377481,81.6673496423
10680.0,3.44914800426,78.1984783603
10710.0,3.67184151293,73.5408397417
10740.0,4.17861417196,71.8725958619
10770.0,4.54443716044,71.907125391
10800.0,2.88162341086,69.8622651015
10830.0,3.62470932758,70.2786727655
10860.0,3.24191789903,69.2827317701
10890.0,3.2965903615,62.7718016835
10920.0,3.54084917181,52.0837458771
10950.0,2.30690529221,56.6377927965
10980.0,2.81174894548,47.8157695606
11010.0,2.10099148543,46.5015169917
11040.0,1.28901627071,45.2168508979
11070.0,-0.575462114851,47.0822106889
11100.0,-2.43503237946,50.7510096483
11130.0,-4.07830567617,47.5564483423
11160.0,-5.71355936331,46.6181223244
11190.0,-6.54056491308,58.9814788109
11220.0,-7.24660784451,52.223887631
11250.0,-7.44154186052,65.1796101319
11280.0,-7.51610188893,61.4021260567
11310.0,-7.8461045928,56.1319816956
11340.0,-8.06071107075,47.8518460875
11370.0,-8.47521951301,53.4282427898
11400.0,-9.48477036758,48.587715771
11430.0,-9.57911497354,53.8726386787
11460.0,-9.96428254543,55.443906714
11490.0,-10.2020943441,63.7165588241
11520.0,-9.05780242307,65.6275867597
11550.0,-9.90436045226,58.2227812779
11580.0,-9.76004011516,58.3857170735
11610.0,-10.3533237559,63.432169001
11640.0,-9.45376353354,63.2198541285
11670.0,-10.0641047818,63.5081031068
11700.0,-9.50718633942,64.3908533279
11730.0,-8.37470232518,73.056712181
11760.0,-7.74840087067,76.0842758453
11790.0,-6.90882423876,66.0421831114
11820.0,-5.41660613289,64.0337098638
11850.0,-4.6538396579,65.5777699923
11880.0,-2.9253977553,59.467806266
11910.0,-3.15690752156,57.8579468269
11940.0,-2.95058364419,58.1940720038
11970.0,-0.350615223649,50.0377000112
12000.0,0.369183823568,45.0297778189
12030.0,3.01024258246,40.6742499915
12060.0,3.84241211276,38.2402576866
12090.0,5.29757474148,36.168220148
12120.0,6.72305751772,32.3549830129
12150.0,7.42774564148,25.4348693145
12180.0,9.51133285898,22.5710111957
12210.0,10.5887042795,19.3248716427
12240.0,11.5977802444,15.0694995554
12270.0,12.2334996947,15.3956592992
12300.0,12.025579832,10.8588316862
12330.0,12.2472005472,10.650166082
12360.0,12.1409100853,10.7191171589
12390.0,10.7835807194,13.1439634411
12420.0,9.85003235647,16.1544512553
12450.0,8.73783076349,16.0299726784
12480.0,8.25316608313,17.2795333071
12510.0,6.86360679307,20.3758312821
12540.0,5.4907006509,21.5987838346
12570.0,4.51829667666,23.1520877832
12600.0,4.39393502028,27.920015461
12630.0,2.73093433981,27.7387893393
12660.0,2.26619893501,29.0058015788
12690.0,0.166497452828,29.6369488205
12720.0,1.20198488835,27.828667937
12750.0,1.04556242888,29.705228426
12780.0,1.11295395341,30.4889958545
12810.0,1.05972148854,32.6126763762
12840.0,1.10779538439,32.1615475451
12870.0,0.673831514697,32.931943088
12900.0,0.437868613185,35.3963715748
12930.0,-0.630551495665,35.5863748552
12960.0,-0.520875502057,37.4730651376
12990.0,-0.237236389343,38.2606455796
13020.0,-0.723864757724,39.1602123561
13050.0,-2.02747677973,40.9489639183
13080.0,-3.37274754747,41.0872869832
13110.0,-3.5750457697,45.10923341
13140.0,-4.0096029666,46.8333522756
13170.0,-4.17910669379,51.023279855
13200.0,-3.84971866237,55.4470429855
13230.0,-5.47011705526,52.2405161024
13260.0,-4.24795899198,52.4017814281
13290.0,-4.14749666864,52.810689791
13320.0,-3.02453370258,50.8148400401
13350.0,-2.61929814152,51.0924715801
13380.0,-1.4353923708,54.1265980304
13410.0,-0.946073167529,54.8043873823
13440.0,1.60707731656,52.2920588393
13470.0,2.8207946098,60.0052092137
13500.0,2.93189545293,56.6532703877
13530.0,4.80685263006,56.7258682796
13560.0,7.00678680971,56.8371722074
13590.0,6.98547584018,47.2666591907
13620.0,8.54857111115,46.7820185961
13650.0,9.11357429924,50.9994093295
13680.0,9.88277432231,54.9661756109
13710.0,10.3196454955,56.2367933621
13740.0,11.1200782525,50.6508585374
13770.0,10.5356231153,55.2985467061
13800.0,11.0251988497,51.6948010829
13830.0,9.28404580143,52.0454224244
13860.0,8.98313318269,53.6470832404
13890.0,7.69709217291,58.097442521
13920.0,7.02527049959,58.0367106709
13950.0,5.2831832088,63.0392910383
13980.0,3.71434695975,65.4284565147
14010.0,3.2141082632,61.2116402742
14040.0,3.4641222183,56.9277956407
14070.0,2.34171923529,52.6837315937
14100.0,2.30955465199,49.858185301
14130.0,1.87223971184,46.156652232
14160.0,2.08521184376,46.9798421766
14190.0,1.28925222716,46.8611643545
14220.0,1.48125418263,49.2846516052
14250.0,1.14689805294,46.0722448865
14280.0,0.975387338486,45.8047382161
14310.0,0.580575693116,49.2301977399
14340.0,-0.60726167523,50.3482769261
14370.0,-0.836268892524,49.8010869562
14400.0,-0.241831574446,50.0232229135
14430.0,-1.62826012248,51.4405400319
14460.0,-2.89539712242,53.5685233591
14490.0,-3.52977241461,55.1540658218
14520.0,-2.17421901096,52.2512001825
14550.0,-3.25073668397,56.3229847168
14580.0,-4.37565059861,59.771594432
14610.0,-4.06878306177,61.041020889
14640.0,-2.432711644,60.0650052609
14670.0,-2.94311259763,62.0309815239
14700.0,-2.4473098924,59.9643330297
14730.0,-0.143637469752,51.6625934092
14760.0,2.20807530163,47.301991185
14790.0,2.11937472304,46.8417405618
14820.0,3.47648420788,45.1820582191
14850.0,4.02351027316,39.8756506967
14880.0,4.93935163408,34.6520536508
14910.0,6.32205144839,28.9356976752
14940.0,8.07655573791,25.1754009779
14970.0,10.0309767554,22.6892605052
15000.0,11.1432790581,18.6378407534
15030.0,11.3331361171,17.4529565016
15060.0,12.6618269383,14.9080790636
15090.0,12.6921368413,14.9083595503
15120.0,12.7591193398,14.8182137439
15150.0,12.0040912622,13.2914650824
15180.0,11.9772600683,14.1929742245
15210.0,10.9660415304,17.5741229893
15240.0,10.1119995727,20.1090956489
15270.0,9.88227015168,25.0197760573
15300.0,9.03009826812,22.3984229284
15330.0,9.22720195887,26.79803542
15360.0,8.30911434463,29.1986085393
15390.0,7.87557143454,34.2650758454
15420.0,7.15999356342,34.2916772797
15450.0,6.58767625947,40.2555197454
15480.0,5.22142570365,44.6382440911
15510.0,4.09581123553,46.4874896039
15540.0,4.19251189827,49.218244875
15570.0,3.80638864575,49.3492953703
15600.0,2.68737001276,47.2167453734
15630.0,2.0507918661,52.2259470882
15660.0,1.02591443025,50.3066173354
15690.0,0.40391942635,51.8747773448
15720.0,0.35615552652,46.2193260745
15750.0,0.594732844035,47.0894716936
15780.0,-0.0275069350606,49.0176672533
15810.0,-0.489352914004,49.4569846222
15840.0,0.152312990475,48.7578955041
15870.0,0.44004281565,48.7772558331
15900.0,-0.367871445482,48.3534566419
15930.0,-1.08276887574,48.2151671132
15960.0,-2.5241733668,53.7785220348
15990.0,-2.92493076138,53.7615450534
16020.0,-2.94316343959,54.1379310563
16050.0,-3.26459679221,52.756960131
16080.0,-1.49867509824,46.4975105992
16110.0,-0.84503464846,51.15295006
16140.0,-0.558030876563,46.8867452237
16170.0,-0.508452382368,43.6197247737
16200.0,0.755646269242,42.3783895373
16230.0,1.90047594892,37.2768179133
16260.0,3.16581764031,37.6437565418
16290.0,4.04871806987,35.5714996482
16320.0,5.20529506114,32.8844146703
16350.0,6.36786406977,29.9049691687
16380.0,8.33188664668,23.7560776759
16410.0,8.66178541162,24.9150124601
16440.0,8.68980042702,26.4655361835
16470.0,9.06710326426,22.6257217378
16500.0,11.0246162781,22.6230414189
16530.0,11.1180858249,22.4599045689
16560.0,11.6849132903,20.9593907561
16590.0,12.0126966534,20.2942990447
16620.0,12.9271270381,24.4142378376
16650.0,12.309964769,24.0951516795
16680.0,11.985000404,23.5597723964
16710.0,11.1158442337,29.6029350724
16740.0,10.9040044265,27.6872145344
16770.0,11.4394040996,28.3261029624
16800.0,10.0760443597,30.6165651664
16830.0,7.76427846307,29.2549900177
16860.0,7.77144130613,29.3093495523
