Time,Temp,RH
0.0,-10.4414479359,101.299625745
30.0,-10.7592218101,103.739267889
60.0,-11.0824739174,103.836655977
90.0,-11.407593303,105.862496922
120.0,-11.6953583318,105.60379682
150.0,-11.956529449,107.350815991
180.0,-12.0989590279,106.46648994
210.0,-12.1509053824,106.592368274
240.0,-12.0920154113,106.256990789
270.0,-11.9710697599,105.455884543
300.0,-11.6173622582,104.666431983
330.0,-11.0931379964,100.155792081
360.0,-10.3514522366,99.2508555974
390.0,-9.51815226102,91.903435986
420.0,-8.45285362301,83.3343825375
450.0,-7.31483186454,74.390768219
480.0,-6.05294711096,69.3921134941
510.0,-4.82539731918,66.993772457
540.0,-3.50389667896,69.9063865665
570.0,-2.442446456,68.3261590936
600.0,-1.24254481917,61.9740844993
630.0,-0.292751524519,65.685488789
660.0,0.480661303886,55.4473105334
690.0,1.11789558361,51.2515978733
720.0,1.55920305568,45.4327707676
750.0,1.69499623071,47.6447987326
780.0,1.60243044959,51.240239961
810.0,1.32349866278,53.4880565891
840.0,0.892043386773,46.4216772381
870.0,0.325657485364,48.2615052085
900.0,-0.324424881553,39.3085162997
930.0,-0.348097944827,38.3911644806
960.0,-1.11616961292,38.6533070137
990.0,-2.18070760502,42.7557310184
1020.0,-3.7869052064,39.067762349
1050.0,-4.71887250706,50.0328090708
1080.0,-3.66714987447,46.1165993797
1110.0,-5.39148766715,53.8054584058
1140.0,-5.49476040823,60.4923586433
1170.0,-6.53116118923,71.1218355219
1200.0,-7.47735148173,76.0580652196
1230.0,-8.10491340144,72.8140861802
1260.0,-7.07546740052,64.4033366132
1290.0,-7.83136720261,57.4017476616
1320.0,-7.07863275841,65.4410982714
1350.0,-7.42617060278,71.8890124087
1380.0,-5.35640153906,62.7298650746
1410.0,-6.49108303149,73.0418339603
1440.0,-7.33347192576,80.1061011405
1470.0,-8.72567671312,76.9603633452
1500.0,-9.75098743224,74.7368296088
1530.0,-8.7339471671,67.9975120638
1560.0,-8.61291834399,67.5231156724
1590.0,-8.85508850006,67.9295373877
1620.0,-9.26977288102,61.9298620565
1650.0,-10.2340834258,70.0179388891
1680.0,-10.1688599477,63.060993247
1710.0,-10.4793169327,72.662798203
1740.0,-9.1607458507,70.8423067545
1770.0,-9.82429840642,83.530064103
1800.0,-9.49006405293,81.3111788556
1830.0,-8.98883047627,82.9035144924
1860.0,-8.07059903003,82.2735963432
1890.0,-6.99804715164,80.1480158428
1920.0,-5.07902793571,74.9762238941
1950.0,-4.10766360945,77.7773986457
1980.0,-3.27922338153,69.2231815695
2010.0,-2.3475932803,68.4847701501
2040.0,-1.3212641459,62.228011265
2070.0,-0.426093053216,61.5209482767
2100.0,0.468017681826,55.169196061
2130.0,0.994955859441,58.4871285986
2160.0,1.42818449292,51.8181928804
2190.0,1.59307710149,57.7843209327
2220.0,1.73203565896,50.8906920827
2250.0,1.44949298786,46.9527747854
2280.0,0.961867741828,50.2682859116
2310.0,0.411975268735,47.1750238769
2340.0,-0.146811057143,56.578445682
2370.0,-1.35785981437,48.0453171279
2400.0,-2.21821448045,60.1243078445
2430.0,-3.14254783532,67.3250156591
2460.0,-4.11787318988,67.6975184111
2490.0,-5.06440751665,74.478906453
2520.0,-5.88683027566,76.2032586747
2550.0,-6.59057665978,73.671704422
2580.0,-7.19905731144,67.6392971026
2610.0,-7.50609814578,65.3833580089
2640.0,-7.0985891928,55.7654453944
2670.0,-7.60140947569,58.0520014922
2700.0,-7.83182006841,60.6133545094
2730.0,-8.24749981025,71.2719267199
2760.0,-8.48595324114,73.2475599347
2790.0,-9.23111929782,76.5078381585
2820.0,-8.89932533242,71.7335542497
2850.0,-9.23467250872,72.729535374
2880.0,-9.36067477831,62.3940384071
2910.0,-7.73155933905,53.6869550701
2940.0,-7.09355589597,53.802590533
2970.0,-8.4571413227,55.0265424779
3000.0,-8.79206761887,51.4705171765
3030.0,-10.2665148958,53.3383089647
3060.0,-10.3591983482,53.5907529694
3090.0,-11.3677274562,55.5720431268
3120.0,-11.8146741048,54.8194259759
3150.0,-11.1126232173,52.1852228975
3180.0,-10.5204415484,48.6932962567
3210.0,-10.1107997393,48.301851098
3240.0,-9.31410307271,48.4745293873
3270.0,-9.36058722931,46.8743970268
3300.0,-7.56321564138,42.8130834297
3330.0,-6.95095375034,36.2930021108
3360.0,-4.32493584105,33.1281095614
3390.0,-3.18836197136,33.9036740537
3420.0,-2.61926590362,32.4689416452
3450.0,-2.39850737517,29.5328439753
3480.0,-1.00922052044,27.4340602696
3510.0,-0.0290533112018,18.7890327529
3540.0,2.15915927608,21.1619851349
3570.0,2.01416098853,17.5916968002
3600.0,3.30296541855,19.0785188545
3630.0,4.7467275106,17.5706652624
3660.0,4.55092201892,16.6281758615
3690.0,4.12414911415,20.3286080924
3720.0,3.94257450095,19.2527458957
3750.0,2.54684686807,21.8199221464
3780.0,3.43756564458,22.0234987563
3810.0,2.96114339903,28.5910152353
3840.0,4.36318673076,30.2414835186
3870.0,3.77477759872,31.1447885169
3900.0,3.72709971263,33.6027638299
3930.0,4.67322515286,34.90238789
3960.0,4.72741387336,36.1521491872
3990.0,3.90662597695,37.6648093215
4020.0,3.23957245155,42.4377028385
4050.0,2.34612632751,44.7767817089
4080.0,1.66266073997,46.8816455923
4110.0,0.747981884402,46.6854549032
4140.0,1.5063966788,44.8690051434
4170.0,0.261304999041,47.5076684781
4200.0,0.805981467919,44.5086217083
4230.0,0.58338772021,46.7433113112
4260.0,0.695046128895,45.7458954079
4290.0,-0.518305271811,47.4205279033
4320.0,-0.236928851416,45.862705277
4350.0,-1.01279223422,48.0407464126
4380.0,-1.37302459837,45.9174297411
4410.0,-2.61449411749,50.8149365847
4440.0,-2.37320086105,48.7053559603
4470.0,-3.79282559119,51.821566557
4500.0,-3.14806837771,49.9750129895
4530.0,-3.70390568447,53.0809408713
4560.0,-2.71874944221,55.0205815135
4590.0,-3.21618751004,54.1252530118
4620.0,-2.97264827963,56.8648921304
4650.0,-2.6245449347,55.5460896707
4680.0,-0.77217865025,50.0793790621
4710.0,0.529484589665,47.2945501486
4740.0,1.69770013749,46.0658549789
4770.0,2.66392598591,45.6067243713
4800.0,4.48376512154,43.5510729051
4830.0,5.43635280375,40.3242675883
4860.0,6.99548457502,40.1400595664
4890.0,7.45199687183,38.5976120744
4920.0,8.51950494162,38.2091116388
4950.0,10.3032426179,33.6650798608
4980.0,11.388905823,31.3903035508
5010.0,12.8393424509,28.8274131239
5040.0,14.2426415469,23.6615283863
5070.0,13.508021954,26.6437235806
5100.0,12.7596683491,31.7961042398
5130.0,12.4744914811,29.6990900494
5160.0,12.7027320489,26.8645813717
5190.0,12.3877784416,30.0337735683
5220.0,11.8238263661,29.1331575511
5250.0,10.4696753803,31.3474421011
5280.0,10.4237597593,33.2088269431
5310.0,10.1363436256,31.7106353964
5340.0,9.89460152235,25.2301073676
5370.0,9.25018704181,27.0902425827
5400.0,10.0866926332,22.76090996
5430.0,9.19915977789,26.5255636243
5460.0,9.44636834965,23.7509845658
5490.0,8.50252262402,23.3681367918
5520.0,8.31326722002,25.2279378799
5550.0,7.85162548631,28.4353698698
5580.0,8.04247035761,27.9799343295
5610.0,8.36299602659,24.443239578
5640.0,8.71346158731,24.8141081313
5670.0,8.51457069002,24.7891915575
5700.0,8.6412864586,26.6640018085
5730.0,9.29791471873,29.044608294
5760.0,7.98067777338,29.7522040328
5790.0,7.11419732855,31.3902593348
5820.0,8.40829228088,30.3132906707
5850.0,9.09591058947,31.5189611127
5880.0,9.0377402524,32.4583910187
5910.0,8.53711690477,36.7421467688
5940.0,9.56198066305,33.9125238866
5970.0,9.30385772213,37.1774498731
6000.0,10.9408570692,40.2833177054
6030.0,10.1082176917,39.1645325164
6060.0,10.4452755186,38.9984586953
6090.0,9.80129053102,40.4322236013
6120.0,11.7935903296,38.3345166384
6150.0,12.9305877831,36.4047281641
6180.0,13.7594521489,34.4654712958
6210.0,14.4698235288,32.2919222033
6240.0,16.9455433316,29.5167816084
6270.0,17.8311233275,24.2305216768
6300.0,18.3979780687,23.1608546342
6330.0,19.4568491798,19.6274603227
6360.0,20.9609791425,17.1889458796
6390.0,22.7835005272,15.4381981619
6420.0,23.3290534966,13.7557470213
6450.0,22.4441972472,13.0025942122
6480.0,22.9381042614,10.1900092217
6510.0,22.2364019777,11.2487879197
6540.0,22.4611839523,11.2853939658
6570.0,20.8035544801,13.8773902049
6600.0,20.389551005,14.0341222803
6630.0,19.3982529987,16.3127201671
6660.0,17.1792654014,19.6231811937
6690.0,15.5964730362,21.9550159924
6720.0,14.560920217,19.8288663109
6750.0,13.211654026,17.7423539595
6780.0,12.6046223216,19.2382916968
6810.0,12.0015130941,22.3506283139
6840.0,11.7185340634,21.238164037
6870.0,11.6366502892,19.7578278243
6900.0,12.1295853503,20.2747244699
6930.0,11.57588045,20.1201465644
6960.0,12.513360333,19.5908904773
6990.0,10.5355189974,19.9897851819
7020.0,11.9124364308,18.0134815174
7050.0,10.8251199346,18.744232164
7080.0,9.88015298293,21.724632478
7110.0,10.6926310241,21.8980255845
7140.0,12.0689731289,21.1818826868
7170.0,12.0123456585,21.2590473577
7200.0,11.957364202,22.9603407037
7230.0,10.7429594281,26.1230793096
7260.0,11.9998824027,26.3149501681
7290.0,12.0698516686,26.4818889246
7320.0,12.1863121311,25.3050238807
7350.0,11.6217555565,26.43153006
7380.0,11.4718855909,29.1186844831
7410.0,11.1569034707,30.8794609858
7440.0,11.1854565628,33.4588250812
7470.0,11.2948712868,35.3484424783
7500.0,12.0290125232,34.0109439483
7530.0,12.6321981594,37.1021897517
7560.0,13.4869777294,31.1503744612
7590.0,14.4160116551,30.3049925079
7620.0,15.4325071591,23.1974352468
7650.0,16.5023687785,27.2049251401
7680.0,17.7466569608,20.7289289743
7710.0,18.8709724074,20.14585574
7740.0,20.1893495863,19.004170305
7770.0,21.2712753317,18.355512099
7800.0,22.05367721,15.8726472463
7830.0,22.8792377715,14.4239264395
7860.0,24.2839103593,11.2966409381
7890.0,24.8983807091,9.49816443075
7920.0,25.3661423751,9.46456770467
7950.0,25.5505820388,8.89201598228
7980.0,25.5237930761,6.70690109676
8010.0,25.2602367248,7.25775156901
8040.0,24.8378286222,5.52793782419
8070.0,24.2195781865,5.50297062357
8100.0,23.4644924889,4.46977075717
8130.0,22.5835370714,5.26631397429
8160.0,21.7282091615,5.06979799539
8190.0,20.7787643486,5.25274935487
8220.0,19.8671932956,5.30223518578
8250.0,19.011445827,7.56343636562
8280.0,18.2134423745,7.64839750899
8310.0,17.4882542906,11.1526034546
8340.0,16.8376130738,12.3054949864
8370.0,16.3107087534,14.9306766669
8400.0,15.8447424363,16.7930622792
8430.0,15.4697656099,20.640811476
8460.0,15.1465519094,20.6886614474
8490.0,14.8668910716,20.7612973106
8520.0,14.6408194909,22.3388693388
8550.0,14.3936128097,25.7613622435
8580.0,14.1409412112,26.9387256371
8610.0,13.858958547,30.5335280011
8640.0,13.5658355597,34.9783029634
8670.0,13.2357426098,36.2686298247
8700.0,12.8978998611,36.9085047079
8730.0,12.5583447148,37.6897782553
8760.0,12.2731130645,38.2152760286
8790.0,11.9884439949,36.6783681073
8820.0,11.8198228277,38.8804936213
8850.0,11.7387520242,40.4586459795
8880.0,11.7515027792,40.404516258
8910.0,11.9543695327,35.875536723
8940.0,12.3728466583,35.4449923403
8970.0,12.8837849441,31.514156847
9000.0,13.5928222213,30.8135429045
9030.0,14.2921094276,30.5907537555
9060.0,15.4393162281,23.5016670713
9090.0,16.4552951397,24.3181230688
9120.0,17.7421383794,17.2269353418
9150.0,18.9531626683,13.7230856138
9180.0,20.2005056543,13.4417696101
9210.0,21.2559273686,6.48990859114
9240.0,22.4670747966,4.62172147759
9270.0,23.4698335871,3.91547875582
9300.0,24.2904327375,-2.21290448961
9330.0,24.7295006994,-1.9464927717
9360.0,24.526040876,-3.98992738577
9390.0,24.3257747746,-4.70633799282
9420.0,24.1430284716,-3.02953824247
9450.0,24.2572388157,-2.15971000483
9480.0,23.2213564462,-4.57348251558
9510.0,23.6179577782,-2.79703446815
9540.0,23.0601484955,-1.57852399234
9570.0,21.0606582427,-0.886144975825
9600.0,19.5106243249,0.608027808233
9630.0,18.0816649064,1.86523989204
9660.0,17.5078960691,2.99256163986
9690.0,16.2534990228,5.79609293634
9720.0,16.5382800369,3.49587563684
9750.0,16.4240936643,8.58480715511
9780.0,14.8118082778,8.6473134058
9810.0,12.58223213,10.192931346
9840.0,12.638078849,14.2431295714
9870.0,12.9786673687,13.8851054793
9900.0,13.5728268052,13.6732457939
9930.0,13.1038546402,13.8859485408
9960.0,13.3832481293,14.6014571175
9990.0,12.8531303438,14.247209314
10020.0,13.423066045,18.2197902504
10050.0,13.0231970535,19.3333794685
10080.0,12.857609368,21.555116219
10110.0,12.1282113163,22.6966336784
10140.0,12.2786729058,23.0548357628
10170.0,11.9091091158,24.6720422676
10200.0,11.6618270821,24.811541922
10230.0,11.5106973261,25.740152846
10260.0,11.1807433192,25.6983945074
10290.0,11.1310538652,27.9032546229
10320.0,11.7701312122,29.6716915555
10350.0,11.885472227,30.8515564906
10380.0,12.0892855009,32.2807112411
10410.0,12.2363602851,28.8457798422
10440.0,13.40726974,25.5011810049
10470.0,14.3021323834,25.3471151885
10500.0,15.3606337305,23.3293416743
10530.0,16.5144664881,17.0956438914
10560.0,17.7318114839,10.3865034236
10590.0,18.9681993304,7.52910260927
10620.0,20.2105861972,5.2448247653
10650.0,21.3095019326,2.37316186109
10680.0,22.506138847,0.0397339656545
10710.0,23.4621835089,-2.25677982206
10740.0,24.2690779112,-5.00065767651
10770.0,24.8650443614,-6.6882952465
10800.0,25.3078318486,-7.23161905691
10830.0,25.3807430927,-5.54334191769
10860.0,25.4358757039,-6.45157448751
10890.0,25.0941839465,-3.00145520228
10920.0,24.7105342583,-3.36324037585
10950.0,24.119279469,-0.945823975614
10980.0,23.3695254203,0.17227905693
11010.0,22.5470743416,1.03574210973
11040.0,21.6075716736,1.55659411091
11070.0,20.6222711934,3.38343063671
11100.0,19.7702034224,4.76967720057
11130.0,18.8799912466,6.84567431283
11160.0,18.1269380639,8.17287191603
11190.0,17.395131397,9.02029943295
11220.0,16.7722483055,11.5530819472
11250.0,16.2343150487,12.8101376297
11280.0,15.7792471926,14.8277562327
11310.0,15.4016986334,17.645577479
11340.0,15.0831478503,17.3735751693
11370.0,14.7973579423,19.7080519411
11400.0,14.564889161,16.8103074682
11430.0,14.3240577314,19.9713046714
11460.0,14.0699569746,16.9052975922
11490.0,13.7902881676,22.704579502
11520.0,13.4884623159,24.4195157672
11550.0,13.1617865197,27.6265093889
11580.0,12.8215541466,28.6620990592
11610.0,12.5057217757,30.068692363
11640.0,12.2030057147,29.8095198088
11670.0,11.9437707185,31.1886912505
11700.0,11.7758202261,28.4399672535
11730.0,11.6663468767,28.5675078294
11760.0,11.6982809826,25.8029950694
11790.0,11.8948986318,28.8437976173
11820.0,12.2111168264,27.0110050486
11850.0,12.740731904,23.9604108296
11880.0,13.4952535116,19.8171626505
11910.0,14.3485936434,16.0018162123
11940.0,15.3402430829,14.7594594231
11970.0,16.4839208322,10.5318949267
12000.0,17.6911345496,7.73367099481
12030.0,18.9253024095,3.81184055298
12060.0,20.1703445679,1.80214980811
12090.0,21.3486749447,-1.87258596445
12120.0,22.5055432693,-4.53383929088
12150.0,23.4973938459,-6.99318529671
12180.0,24.3155390271,-10.1084761318
12210.0,24.9434377971,-11.4466242008
12240.0,25.3557158425,-11.6824398119
12270.0,25.5452924824,-11.4653770934
12300.0,25.5127268605,-11.6706143553
12330.0,25.2645190496,-9.24152438388
12360.0,24.8264049791,-8.15026004019
12390.0,24.207510013,-3.19780936556
12420.0,23.4564682947,-0.42005873351
12450.0,22.5857800809,1.4063826982
12480.0,21.5770205114,7.74436641558
12510.0,20.7515998514,7.80036886086
12540.0,19.7898473111,8.13425334502
12570.0,18.8697677955,10.0024866548
12600.0,18.0440283847,15.6140834082
12630.0,17.4013689553,14.0133249743
12660.0,16.7606736432,13.9469760009
12690.0,16.1086847577,14.9968568344
12720.0,15.8173970679,13.1779448291
12750.0,15.411098832,15.7352381745
12780.0,15.1348737708,14.1207225813
12810.0,14.8382406026,14.042817464
12840.0,14.6089735603,13.5129512576
12870.0,14.3818723278,13.606116789
12900.0,14.1121655003,12.6650810142
12930.0,13.8350936505,12.8796061514
12960.0,13.5597574041,14.0597634959
12990.0,13.2002297784,15.4376276381
13020.0,12.9073944479,17.9095401755
13050.0,12.5662026848,17.9587091683
13080.0,12.2734584031,19.4113766056
13110.0,12.0125090769,20.9421829888
13140.0,11.8312779238,20.5188815328
13170.0,11.747305211,21.4018072672
13200.0,11.7872477672,20.306214468
13230.0,11.9736605167,20.0538049659
13260.0,12.3213591481,19.344197279
13290.0,12.8402797907,17.5314799377
13320.0,13.5302341666,15.726521064
13350.0,14.3806155261,13.3772662356
13380.0,15.3743929754,10.8648174057
13410.0,16.4849348019,7.9979003455
13440.0,17.6790639198,4.93622956581
13470.0,18.9166685358,2.09842035271
13500.0,20.1547242289,-0.980871944043
13530.0,21.3485557761,-3.65488217373
13560.0,22.4537469371,-6.28614071906
13590.0,23.4297063285,-8.44749177317
13620.0,24.2409429199,-10.2449778537
13650.0,24.8591163791,-11.5539144296
13680.0,25.264763702,-12.3728515585
13710.0,25.4480722269,-12.6817404968
13740.0,25.40797603,-12.5322817333
13770.0,25.1569546502,-11.9261834029
13800.0,24.7128785631,-10.9196002768
13830.0,24.1016870626,-9.60795152847
13860.0,23.3567104248,-8.09872693374
13890.0,22.5132112166,-6.27711174609
13920.0,21.6097049498,-4.39713330995
13950.0,20.6833355699,-2.33180602257
13980.0,19.7683733463,-0.359536854077
14010.0,18.8962196424,3.38274589426
14040.0,18.0854841389,5.80822768273
14070.0,17.3512623454,8.1632350267
14100.0,16.7234967012,8.86177524705
14130.0,16.1846136118,9.71501324233
14160.0,15.7331915581,10.7795598648
14190.0,15.3569591301,11.3969299359
14220.0,15.0399274036,11.4603166163
14250.0,14.7654865611,14.4389199942
14280.0,14.5146106567,14.4563460189
14310.0,14.2687611447,14.5868510629
14340.0,14.0142764853,16.0114531833
14370.0,13.7410684987,14.5961393058
14400.0,13.4451441239,15.186291579
14430.0,13.1285328371,15.5395144874
14460.0,12.8001735262,16.394157866
14490.0,12.4748838978,17.4116715362
14520.0,12.1730475512,20.187095386
14550.0,11.9187564103,20.9035236346
14580.0,11.7387507494,22.3150362217
14610.0,11.6592446842,21.7473665724
14640.0,11.7056604926,21.5268024848
14670.0,11.898593804,22.18117753
14700.0,12.254630884,19.4443935454
14730.0,12.7806478475,19.0852438893
14760.0,13.4770526455,18.9402315124
14790.0,14.3351472479,17.2055775642
14820.0,15.3364156688,14.7750657601
14850.0,16.4543681124,12.1268831211
14880.0,17.6557201852,11.3919256287
14910.0,18.8999064764,9.19925146767
14940.0,20.1477322142,6.1480880004
14970.0,21.3493792242,8.64998152402
15000.0,22.4623972973,6.08842764139
15030.0,23.4457291023,3.64023232627
15060.0,24.2641093426,2.27345718278
15090.0,24.8890822765,2.79456826311
15120.0,25.3013730572,3.93598246799
15150.0,25.4909165062,2.89647483199
15180.0,25.4580252095,1.80263537898
15210.0,25.211876441,2.47526063969
15240.0,24.7739353493,2.04457149556
15270.0,24.1672558195,4.2715543989
15300.0,23.4231695457,9.48782972668
15330.0,22.5730711065,11.8389320118
15360.0,21.6596302039,13.8070756967
15390.0,20.7418368398,14.2975756867
15420.0,19.7841355742,15.8724539977
15450.0,18.89539762,22.4181345569
15480.0,18.1315044307,20.3407379043
15510.0,17.3248069341,25.0985121074
15540.0,16.7393582203,22.2322376392
15570.0,16.1782250052,21.9764762236
15600.0,15.7380226038,18.4091494863
15630.0,15.2651379215,20.4534654034
15660.0,14.8535164249,15.1747943076
15690.0,14.674363235,13.8263907703
15720.0,14.4171645785,13.1352989273
15750.0,14.15366273,15.3067916092
15780.0,14.0170210405,13.8821528345
15810.0,13.6256183905,14.1539854508
15840.0,13.1615842318,17.4816253445
15870.0,12.3446702998,18.9387725249
15900.0,12.1178227666,20.2833946974
15930.0,10.3433709195,21.4406983159
15960.0,10.0165882523,24.0605469353
15990.0,8.82126198158,29.0530343674
16020.0,9.36772198949,29.425152201
16050.0,9.35992180495,28.5539629678
16080.0,9.54487670727,31.0755876686
16110.0,8.0777775712,29.7320232588
16140.0,8.42820751566,31.4961794001
16170.0,9.6151903363,32.8175826405
16200.0,11.7196388173,29.3585710857
16230.0,12.2759171916,29.4202728664
16260.0,12.2356851176,25.2682822369
16290.0,12.848412555,26.7916437134
16320.0,14.6771120029,21.6443675056
16350.0,16.9228792251,18.9611198859
16380.0,19.0442674002,14.0865940015
16410.0,20.6532243153,13.4764179332
16440.0,21.7420557431,10.3860715656
16470.0,22.5867567926,7.33621026427
16500.0,23.4343126135,2.13304366377
16530.0,23.1198988262,3.08505369899
16560.0,24.6229328584,-0.163514575581
16590.0,24.3740267854,-2.36770575816
16620.0,25.0025688338,-5.09013173441
16650.0,24.6224371383,-5.99471720111
16680.0,24.5157048771,-3.82771335851
16710.0,23.8040991177,-2.39962727337
16740.0,23.1709125258,-2.28970933057
16770.0,22.3426235694,0.285363717668
16800.0,21.3812737567,2.44803089704
16830.0,20.3248495926,9.59615514113
16860.0,19.4491235076,11.0870263515
