Time,Temp,RH
0.0,-10.4430375864,100.067219717
30.0,-10.7601425993,101.499288244
60.0,-11.0894578641,102.207689649
90.0,-11.4151494274,102.534409279
120.0,-11.7177448583,103.518046329
150.0,-11.9726061376,104.322533254
180.0,-12.1533015719,102.46477267
210.0,-12.2332258122,100.143941096
240.0,-12.1873827021,99.6037871973
270.0,-11.994692237,95.2264760839
300.0,-11.6397490129,93.8790047
330.0,-11.114223708,88.3510271798
360.0,-10.4182433872,79.1465381544
390.0,-9.56082636481,85.5874700114
420.0,-8.55991515826,80.715346815
450.0,-7.44205801597,81.6892150809
480.0,-6.24088003832,75.7362734733
510.0,-4.99599736173,71.6971683181
540.0,-3.75071826095,65.8136022448
570.0,-2.5499433706,67.2249202035
600.0,-1.43775463445,66.2934851703
630.0,-0.454969780872,62.5689413357
660.0,0.363059909007,63.0929756579
690.0,0.988012021355,60.9223451273
720.0,1.39950597403,58.9138476476
750.0,1.58851510738,64.7561969396
780.0,1.55543072112,66.4029310207
810.0,1.30943414968,69.4169006915
840.0,0.869525368966,72.5468181754
870.0,0.262674872567,75.6627874738
900.0,-0.478736817737,79.1165354106
930.0,-1.31852184469,80.6807981711
960.0,-2.21869902036,82.0889748556
990.0,-3.14206060482,82.6232754186
1020.0,-4.0540327932,86.5719210818
1050.0,-4.92472056937,88.1826054754
1080.0,-5.73037010051,89.5312718665
1110.0,-6.45433699541,90.4415530134
1140.0,-7.08759310884,91.0146477747
1170.0,-7.62863553544,90.4413294817
1200.0,-8.08290762902,90.1015875115
1230.0,-8.46166333761,91.3836646743
1260.0,-8.78051402767,89.4487670295
1290.0,-9.05764449107,86.285485217
1320.0,-9.31188944223,87.3766793727
1350.0,-9.56081196551,76.9962147422
1380.0,-9.81890832236,82.4435362974
1410.0,-10.0960858345,80.7954381156
1440.0,-10.3965190804,75.9965997179
1470.0,-10.7179735939,77.7680806758
1500.0,-11.0516489288,74.1700597953
1530.0,-11.3825571141,79.7826635159
1560.0,-11.6904147324,63.6732129714
1590.0,-11.9509896378,61.1160496493
1620.0,-12.1378115516,67.4754292922
1650.0,-12.224128693,75.8416037851
1680.0,-12.1849744955,69.1437885518
1710.0,-11.9991994853,75.0302479646
1740.0,-11.6513240823,64.1407062489
1770.0,-11.1330791074,67.1210643921
1800.0,-10.4445205879,76.5256473462
1830.0,-9.59463352578,77.4130828981
1860.0,-8.60137303501,80.3819830743
1890.0,-7.4911288583,74.0763440756
1920.0,-6.29763796304,75.5784896107
1950.0,-5.06040713898,77.8682244562
1980.0,-3.8227408489,76.2634130853
2010.0,-2.62949599302,76.1678276519
2040.0,-1.52470521505,75.1045459714
2070.0,-0.549218338161,69.4479848169
2100.0,0.261488114117,67.1210350408
2130.0,0.879193093436,66.9803040573
2160.0,1.28438946189,64.7720120699
2190.0,1.4672203177,68.5354185902
2220.0,1.42784523318,69.6924871327
2250.0,1.17620862828,72.2730671568
2280.0,0.731233880999,73.655780045
2310.0,0.119500222155,76.5932020593
2340.0,-0.626508070718,79.869411117
2370.0,-1.47046122549,81.2637060562
2400.0,-2.37441464855,81.8043291081
2430.0,-3.30106289815,83.7693536014
2460.0,-4.2158690227,86.1710951863
2490.0,-5.08893121538,87.9036996878
2520.0,-5.89646789887,89.9761557518
2550.0,-6.62182948746,90.3969746948
2580.0,-7.2559782905,91.407185855
2610.0,-7.79741505163,90.7320057005
2640.0,-8.25156892307,94.5513499065
2670.0,-8.62970463123,95.0911300066
2700.0,-8.94743367639,95.7835081971
2730.0,-9.22294336254,95.656677907
2760.0,-9.47507644864,96.5763865807
2790.0,-9.72140393952,99.1625761678
2820.0,-9.97643335941,101.003243466
2850.0,-10.2500847856,101.297509726
2880.0,-10.5465476579,103.504408026
2910.0,-10.863604273,104.605177323
2940.0,-11.1924727591,106.179754358
2970.0,-11.5181855141,107.514002803
3000.0,-11.8204810876,108.562314112
3030.0,-12.0751509294,109.403883374
3060.0,-12.2557498149,109.977744919
3090.0,-12.3355523587,110.252419278
3120.0,-12.2896196517,110.138830927
3150.0,-12.0968309973,109.549602189
3180.0,-11.7417366143,108.626394354
3210.0,-11.2160979877,107.218476797
3240.0,-10.5200025652,105.062379707
3270.0,-9.66246738196,102.906974137
3300.0,-8.66148005976,100.3250623
3330.0,-7.5434631843,97.4298844406
3360.0,-6.34218676567,94.3676017579
3390.0,-5.09719070839,90.9918663895
3420.0,-3.8518124252,88.586480305
3450.0,-2.65094166611,85.0239335248
3480.0,-1.5386434635,82.7792700836
3510.0,-0.555799528004,79.099278177
3540.0,0.262082181805,75.6727096575
3570.0,0.886750619222,74.1931446159
3600.0,1.29866837387,71.2605183322
3630.0,1.48795069205,72.0007288224
3660.0,1.45472950238,74.3158425111
3690.0,1.20892292436,74.2350487217
3720.0,0.769429747128,74.7334286618
3750.0,0.162805979655,75.7098365715
3780.0,-0.578485738969,77.8311208718
3810.0,-1.41813558982,80.6830786093
3840.0,-2.31821716313,79.4891147527
3870.0,-3.24144135371,81.2453745391
3900.0,-4.15328563033,83.305899065
3930.0,-5.02386062346,84.2843158753
3960.0,-5.82939516208,86.1648398993
3990.0,-6.55324799327,87.1688181396
4020.0,-7.18638764099,89.5352954175
4050.0,-7.72731892763,88.7312254229
4080.0,-8.18147292314,91.6705575847
4110.0,-8.56011411397,85.7681176912
4140.0,-8.87885158748,88.1353563762
4170.0,-9.15586808957,87.3958732943
4200.0,-9.40999968729,84.4361927671
4230.0,-9.65880856699,87.7312158235
4260.0,-9.91679140514,88.2370351922
4290.0,-10.1938553659,81.501561459
4320.0,-10.494175019,80.9843453851
4350.0,-10.8155159618,82.5936465928
4380.0,-11.1490776878,87.3104253654
4410.0,-11.4798722676,90.0309515657
4440.0,-11.7876162324,89.8683213552
4470.0,-12.0480774404,94.5103990536
4500.0,-12.234785558,93.0900596841
4530.0,-12.3209866333,92.1318864946
4560.0,-12.2817186828,85.5742700265
4590.0,-12.0958202246,88.1831641334
4620.0,-11.7477711006,81.9903287929
4650.0,-11.2294340896,86.3541776692
4680.0,-10.5407330005,74.445574268
4710.0,-9.690178156,78.5910277305
4740.0,-8.69522718817,66.6275404446
4770.0,-7.58444786642,71.4268433859
4800.0,-6.3909285348,71.4428169609
4830.0,-5.15408356959,68.3561939201
4860.0,-3.91712212997,72.0681888839
4890.0,-2.72370522959,67.9482699797
4920.0,-1.61903853694,66.3275468638
4950.0,-0.644144333337,71.9794464053
4980.0,0.166457167777,66.7214948447
5010.0,0.784334896018,65.3009608644
5040.0,1.19058590065,62.473588261
5070.0,1.37301512197,63.0537052171
5100.0,1.33334520274,57.6521971748
5130.0,1.082157977,58.2645626132
5160.0,0.636902253643,60.466120399
5190.0,0.0252488902355,58.090231811
5220.0,-0.720645103212,58.2520853669
5250.0,-1.56444356852,60.1911191494
5280.0,-2.46808466296,60.7382162456
5310.0,-3.39452245771,65.8536857949
5340.0,-4.30946085081,64.4735681197
5370.0,-5.18159514711,59.6377211035
5400.0,-5.98862759296,68.1561891042
5430.0,-6.71489569191,65.0122934936
5460.0,-7.348646076,62.0682256809
5490.0,-7.89029062283,63.1617619036
5520.0,-8.34441997647,59.9795037875
5550.0,-8.72247027409,72.0262289273
5580.0,-9.04027011736,61.0301775831
5610.0,-9.31562365491,66.9043950557
5640.0,-9.56745289012,75.5256379817
5670.0,-9.81372766507,77.3772653198
5700.0,-10.0685905063,80.580189308
5730.0,-10.3420945567,88.8213725332
5760.0,-10.6380439339,90.0325877794
5790.0,-10.9549638692,91.1115162169
5820.0,-11.2836490528,94.3167230788
5850.0,-11.6095586467,98.8707414706
5880.0,-11.9117622079,101.718938135
5910.0,-12.1660119231,96.4955889305
5940.0,-12.3452927855,96.4736976304
5970.0,-12.4259438451,93.3962941393
6000.0,-12.3786377146,95.4151442945
6030.0,-12.1861201428,100.157444021
6060.0,-11.8314737896,101.591839619
6090.0,-11.3055593617,94.7188455489
6120.0,-10.608289951,88.0452502958
6150.0,-9.74978115178,90.0861437295
6180.0,-8.74527603914,85.6009351627
6210.0,-7.61358916336,79.4541180316
6240.0,-6.40860254237,75.8902947351
6270.0,-5.16882372559,72.3528333332
6300.0,-3.93177812948,61.636026288
6330.0,-2.73784680669,59.6776890556
6360.0,-1.62358472857,53.6078938511
6390.0,-0.633175841603,36.5221255908
6420.0,0.193909287986,32.7059387079
6450.0,0.872134086973,28.8015266078
6480.0,1.29140982747,28.0772708236
6510.0,1.50003444485,23.5996551988
6540.0,1.75859755909,19.7462347772
6570.0,1.71853439895,17.4954043071
6600.0,1.72974468133,19.9566142968
6630.0,0.36522207364,23.3973995
6660.0,0.375986009778,22.3886609317
6690.0,-1.02740315115,22.0608515497
6720.0,-1.32553757253,24.8895739971
6750.0,-2.1880247305,23.344073277
6780.0,-2.67443563706,28.3938490008
6810.0,-3.07587092145,26.8825443519
6840.0,-4.74152465837,29.3638648988
6870.0,-5.43663704698,30.074873872
6900.0,-6.16017874287,29.5182408649
6930.0,-7.22621081853,30.3044746083
6960.0,-7.82985159859,33.1694876825
6990.0,-8.21522586165,33.1028299047
7020.0,-8.81243951527,34.6506538484
7050.0,-9.14382866914,38.3921920462
7080.0,-9.18442390454,36.5475918232
7110.0,-9.58371593314,37.3977046973
7140.0,-9.83746540369,40.7212925597
7170.0,-9.93326257215,39.2953430392
7200.0,-10.1909707896,40.5209410446
7230.0,-10.5802650515,45.1808229832
7260.0,-10.8176324329,48.5806440775
7290.0,-10.5881621906,51.6959042821
7320.0,-10.8783131179,52.2832672979
7350.0,-11.1591887042,55.2437646414
7380.0,-10.3964610172,53.3844069496
7410.0,-11.2327399328,55.0199555186
7440.0,-9.89110609592,59.007848191
7470.0,-10.1890622787,58.1785490041
7500.0,-8.90222591017,56.1321448632
7530.0,-6.48412753381,51.7877963872
7560.0,-4.3037341282,46.1240733924
7590.0,-5.27301037476,44.3264822894
7620.0,-4.14422142703,41.0659040424
7650.0,-4.03809628206,40.8587199936
7680.0,-4.58042565159,39.647981031
7710.0,-2.5984663749,31.5460010587
7740.0,-1.61416404617,31.6326793913
7770.0,0.719932540179,25.2162452136
7800.0,1.42414538472,23.8016381505
7830.0,2.57683526675,24.1821414117
7860.0,3.55579679294,18.263695576
7890.0,3.04262840524,16.1627507055
7920.0,4.54666322568,18.6258178696
7950.0,6.26663830167,16.5394559711
7980.0,5.56128082358,16.4020915714
8010.0,5.4999728961,22.2399686482
8040.0,4.26642031517,22.6343434232
8070.0,3.86511233551,25.490799856
8100.0,3.07494785654,29.0994938825
8130.0,2.37862418803,29.9342059223
8160.0,1.08102967223,30.3492771319
8190.0,-0.247804347145,35.6022616074
8220.0,-0.883256597006,35.9669551119
8250.0,-3.02340814878,40.0155511157
8280.0,-3.79581197745,43.6207698394
8310.0,-4.51608792639,48.6377827589
8340.0,-4.83816447477,43.6577010925
8370.0,-5.88401637001,53.143213805
8400.0,-7.22176123638,50.9851191856
8430.0,-6.98368142374,53.3636026776
8460.0,-7.66776171948,45.2645591396
8490.0,-6.54074734584,41.7748017482
8520.0,-4.9583155623,41.3999917811
8550.0,-3.22207019592,40.0196930976
8580.0,-2.30085090476,35.7908430704
8610.0,-2.39710899863,40.118672441
8640.0,-2.8465873647,42.9224183515
8670.0,-1.85165064545,43.2647550962
8700.0,-0.697960223295,43.7062590828
8730.0,-1.16714224146,46.385524579
8760.0,-1.49903914865,49.7041712073
8790.0,-2.38446045569,53.5336385037
8820.0,-2.47121831565,53.7872651126
8850.0,-2.58886934474,54.9981062871
8880.0,-2.40047507599,56.0173517624
8910.0,-3.04072953972,58.3374893448
8940.0,-2.00223480389,52.452085677
8970.0,-1.7358688141,56.8008957819
9000.0,-0.719969288876,58.9549965894
9030.0,-0.573982051491,67.3021912402
9060.0,-0.208759957781,60.1949003381
9090.0,1.70199257405,65.481944197
9120.0,2.514765378,65.0214189333
9150.0,3.45540457821,68.4380098747
9180.0,4.10992311834,71.6063363528
9210.0,5.20990179994,74.5363393269
9240.0,7.14195502698,69.469538781
9270.0,9.42572524384,64.7328680912
9300.0,10.2228834989,60.6083640882
9330.0,9.7187334762,61.2470718989
9360.0,9.66025294329,65.430488584
9390.0,10.7335022258,66.7138563834
9420.0,10.9220492376,70.1210380879
9450.0,10.0437084546,66.4364548605
9480.0,10.3839359397,70.8665949183
9510.0,9.36475279088,76.2746264111
9540.0,8.69954620633,78.9556978712
9570.0,7.85220417788,81.893478014
9600.0,7.29810343795,82.0091633176
9630.0,6.3437587512,84.6160616421
9660.0,5.00664674324,85.5651854786
9690.0,4.4886523013,89.1150642201
9720.0,2.4578886082,89.4952315271
9750.0,1.0599180609,91.890507948
9780.0,1.28498453733,93.5634199207
9810.0,0.802433693802,93.986079715
9840.0,-0.0313843840331,95.6021585408
9870.0,0.352658366805,95.5280353698
9900.0,-0.31356525743,96.144642206
9930.0,0.113350851541,96.1298898806
9960.0,0.562990900568,96.5076965063
9990.0,-0.0991484779016,98.6643345209
10020.0,0.0037909216682,98.7292714582
10050.0,0.056747553653,98.6250918047
10080.0,-0.529829194962,98.0409268094
10110.0,-0.322793644214,97.1624668991
10140.0,-1.18895614167,96.742481815
10170.0,-1.75631073046,99.1412070346
10200.0,-3.13947429224,98.2994566177
10230.0,-4.47046442925,96.154572381
10260.0,-5.03559370777,101.23111866
10290.0,-7.41624739571,100.832271998
10320.0,-5.38984481763,100.051746885
10350.0,-4.90120277981,99.1205290659
10380.0,-5.11369790313,102.374041088
10410.0,-4.43429433931,100.019304694
10440.0,-3.40914365394,98.91515053
10470.0,-3.50566602187,96.8383020748
10500.0,-1.83557871885,95.3658642393
10530.0,-2.85093778707,94.312289783
10560.0,-1.05529142279,90.7207589097
10590.0,0.1206922836,88.4315369739
10620.0,0.2341374863,85.7896651068
10650.0,0.617999113444,83.2094503447
10680.0,1.9967409269,80.7818172487
10710.0,2.88442997721,79.7059738068
10740.0,4.49425577921,78.9177810666
10770.0,4.90892543241,77.6693498359
10800.0,3.57092979086,76.246934254
10830.0,3.29779100887,75.7358673549
10860.0,4.65198947378,74.172782765
10890.0,3.32820851905,74.8803639687
10920.0,2.73556521316,74.9830300324
10950.0,1.9736128673,77.1779451531
10980.0,2.3320539103,76.7377992746
11010.0,2.2557524503,77.877943317
11040.0,-0.225616822395,78.7483939463
11070.0,0.108613365991,83.5853437683
11100.0,-0.853728514382,82.4655362921
11130.0,-0.890287565972,79.0311769289
11160.0,-2.37971220219,79.9623754354
11190.0,-3.06266266689,80.9650317385
11220.0,-2.64061962463,77.1137464517
11250.0,-3.00834663068,75.2586096118
11280.0,-3.98764216191,76.1631203813
11310.0,-4.45298954607,67.6878008521
11340.0,-4.4605481741,69.4137738721
11370.0,-3.77418361651,60.9600178527
11400.0,-4.36357025351,66.8251277412
11430.0,-4.81827798768,67.2365653153
11460.0,-6.35250173993,68.6489658772
11490.0,-8.61851099216,73.1954945438
11520.0,-10.5381718484,81.4717029638
11550.0,-10.8378738735,78.6511287105
11580.0,-11.1814908527,67.2286798149
11610.0,-11.5367311849,68.3548991243
11640.0,-11.7445558601,64.2761954663
11670.0,-12.1295418978,58.5396486757
11700.0,-12.2462810651,60.0656548025
11730.0,-11.1943473341,61.1687005492
11760.0,-11.5447770497,56.2905654162
11790.0,-10.2149453919,53.1301338144
11820.0,-9.31256294399,48.6054356382
11850.0,-8.39676151701,45.8816815177
11880.0,-6.7378864166,43.4866284712
11910.0,-6.99777651431,43.0559175994
11940.0,-5.80818251633,43.2440833126
11970.0,-5.65435276506,37.9122973562
12000.0,-2.93256297947,38.0835054204
12030.0,-1.94965599439,32.5954819312
12060.0,-1.5730254471,30.8312115647
12090.0,0.976630665699,29.9044002551
12120.0,1.89280854727,21.2023601165
12150.0,4.10822692855,19.2175398239
12180.0,4.40160079766,16.9566442956
12210.0,4.84561300734,11.2468546577
12240.0,5.74935561306,10.933750945
12270.0,6.08489525737,10.34187145
12300.0,6.14543951065,11.4767537966
12330.0,7.40663286475,8.91086614826
12360.0,8.28484920203,9.77571346449
12390.0,9.56187067184,6.59142574048
12420.0,8.45740145671,7.52004822556
12450.0,6.49155106599,12.3599792255
12480.0,5.16154438833,16.0795639079
12510.0,4.1548979501,15.0426697136
12540.0,4.42477812926,18.4489540114
12570.0,2.60135662401,22.6950206604
12600.0,0.917808798535,23.4693889657
12630.0,0.0086146001205,25.0608964578
12660.0,0.22916809453,23.8452451253
12690.0,0.799602534738,21.4967179816
12720.0,1.80146126536,19.4411693656
12750.0,1.83194326827,16.8729063923
12780.0,1.04968741026,17.8555618058
12810.0,1.63783208297,19.2570435998
12840.0,1.18374764302,20.8563418039
12870.0,0.276727102634,22.3264843557
12900.0,0.53622844879,20.3256904776
12930.0,0.693094130041,19.1963876906
12960.0,0.385561889454,17.9838440043
12990.0,0.956375264434,21.6415370863
13020.0,0.789555534195,23.1123645758
13050.0,0.300223831191,21.91983362
13080.0,-0.330346285935,24.4559376806
13110.0,-0.64112851279,24.1907058468
13140.0,0.287488927294,24.6691122923
13170.0,-0.542447347278,26.1083418448
13200.0,-0.210522461098,28.8897736496
13230.0,0.336204824621,32.6796524543
13260.0,1.22296458922,30.1056712586
13290.0,1.78003008459,31.6046066749
13320.0,2.24430342826,33.0802437638
13350.0,3.90301653426,34.1120887783
13380.0,4.77545173729,31.9617957143
13410.0,6.31367394775,32.133566379
13440.0,6.35329533111,29.0809991164
13470.0,9.93979839636,23.1383505305
13500.0,10.9608090943,22.8707028366
13530.0,11.3380756022,20.7406464901
13560.0,13.2765671378,17.4706712113
13590.0,14.4778493811,13.090273996
13620.0,16.3397681282,10.972312044
13650.0,16.3691323065,8.06961635571
13680.0,16.8200988192,5.83860372595
13710.0,16.9090957624,5.66072145247
13740.0,16.677380614,7.68388571101
13770.0,16.3943215792,6.93571336026
13800.0,15.840929034,9.50119876043
13830.0,15.2826459265,12.4682304693
13860.0,13.1255955669,12.8837037998
13890.0,13.504717074,14.0575902199
13920.0,13.1260936906,9.75662044225
13950.0,12.303544343,10.4391716797
13980.0,10.7504442323,14.5705745591
14010.0,9.51321056531,16.1152608495
14040.0,9.78536252044,16.2189940332
14070.0,8.81731637844,15.6038477445
14100.0,8.27748521014,16.3012631625
14130.0,6.84353270417,20.2132040184
14160.0,5.96437429548,17.9335569717
14190.0,5.56712744762,20.1679322832
14220.0,5.44060926392,21.0840154266
14250.0,4.92251324363,18.6174518861
14280.0,5.71549057207,23.5645710203
14310.0,5.96123440581,20.9064969767
14340.0,5.29578401206,21.7826585837
14370.0,5.25443264451,25.7827714285
14400.0,5.10804856874,27.2000445644
14430.0,4.31225660027,28.6832078189
14460.0,2.95353993373,28.9601072926
14490.0,2.42735071172,35.6092184905
14520.0,3.34679203612,34.4944154982
14550.0,3.92183603673,34.8122094163
14580.0,3.28596731288,36.1675757202
14610.0,3.19831585827,36.9400145485
14640.0,3.25628991473,38.266402068
14670.0,3.16177443592,37.8446049571
14700.0,2.96231519518,36.8884197766
14730.0,4.78155626399,37.3574367509
14760.0,4.81687272963,33.8164384687
14790.0,5.7789098259,36.2648487963
14820.0,6.72643088365,34.6153205648
14850.0,8.16477274219,28.2330196228
14880.0,9.07335904808,27.4218623688
14910.0,10.2037499949,26.0960718525
14940.0,11.6654320801,20.3011380163
14970.0,13.2076616134,17.6709004973
15000.0,14.644809101,12.3442046221
15030.0,15.587845115,7.84402243898
15060.0,16.2012067147,6.81551597453
15090.0,16.7175812463,5.99386253954
15120.0,17.2019578004,6.92366141355
15150.0,18.1771613909,6.2191085353
15180.0,17.9818790017,4.30335163626
15210.0,17.1079707931,6.74412873
15240.0,17.1806248255,7.44322343842
15270.0,16.5208606864,3.15283581349
15300.0,15.8694859152,6.9078877824
15330.0,14.463586991,5.49868463972
15360.0,13.5461691996,9.03248915671
15390.0,12.5514708174,9.31108675444
15420.0,10.7525423222,10.0374718418
15450.0,10.466706901,13.9326944982
15480.0,9.94173009133,11.1005753846
15510.0,9.23547442039,11.4845627783
15540.0,9.15341478316,10.8658971586
15570.0,8.38676565849,10.6834409987
15600.0,7.11937700189,10.9401822868
15630.0,6.17574783364,13.6232701409
15660.0,5.6017691404,13.983624173
15690.0,5.50211124051,16.0865941939
15720.0,4.8528777033,16.9935954317
15750.0,3.96068627688,19.6716507796
15780.0,5.259490145,21.5099701672
15810.0,5.41480778978,22.1750798148
15840.0,5.06794857647,24.1780628274
15870.0,4.36736645691,25.9026946379
15900.0,4.62676077024,26.7968713954
15930.0,4.17752563268,31.6304390989
15960.0,3.68466760994,35.0798602169
15990.0,3.58883204278,35.896220384
16020.0,3.83794298422,38.3622541526
16050.0,3.47945653898,41.3054842419
16080.0,3.41520598573,41.6889985363
16110.0,3.40806928467,38.0389193635
16140.0,4.25644980283,35.4446073871
16170.0,5.05598180737,36.9190900076
16200.0,5.76280234588,37.4291311484
16230.0,6.43283872034,33.7687621432
16260.0,7.44744239329,30.720712348
16290.0,8.13826491581,26.6291816007
16320.0,9.69361032971,25.1174290777
16350.0,11.357124653,21.0228522643
16380.0,13.4592471871,19.6583951976
16410.0,14.5947763942,17.0050766697
16440.0,15.2405116989,17.6506939342
16470.0,16.9332905806,13.6285264167
16500.0,17.4626538813,11.8390935643
16530.0,18.3215653819,8.03795182085
16560.0,18.4506814844,9.76788321122
16590.0,18.2208839301,6.97736464373
16620.0,18.7887689889,6.54722387551
16650.0,18.4430285615,7.27997438664
16680.0,17.945618931,7.12106087938
16710.0,16.8503386648,9.99079465697
