Time,Temp,RH
0.0,13.5529034272,26.552861044
30.0,12.8002589596,29.1626502056
60.0,12.4798397112,28.8594882367
90.0,12.5320485436,31.5356453153
120.0,12.3987769545,34.3375758671
150.0,12.2037962366,35.4060756888
180.0,12.1083942152,35.4640027476
210.0,12.0073814992,36.292791738
240.0,11.9990704953,39.2188235147
270.0,12.2193345544,35.2849661474
300.0,12.475683879,34.6350646713
330.0,13.0539116897,31.5477884851
360.0,13.749682195,31.1312778059
390.0,14.6724214971,29.7626708844
420.0,15.6716208084,23.5733648654
450.0,16.8155277731,19.9680429606
480.0,18.0300511212,13.8710831996
510.0,19.2797262614,7.35519797086
540.0,20.5229115147,3.72489257911
570.0,21.7365317587,0.755536530026
600.0,22.8434295771,-1.09869813238
630.0,23.833576953,-3.12748986311
660.0,24.6532133658,-5.30413913084
690.0,25.2798964856,-7.13229192843
720.0,25.692222548,-6.83058096243
750.0,25.8814103358,-6.6494851035
780.0,25.8480885932,-5.78111956126
810.0,25.6021471782,-3.91153907671
840.0,25.162557972,2.11851431818
870.0,24.5558149778,3.0573558824
900.0,23.8144182839,6.37915790459
930.0,22.9746587257,9.24250936671
960.0,22.0744578784,11.538278324
990.0,21.1511145819,16.0205136304
1020.0,20.2391557131,17.2231050962
1050.0,19.3684799275,21.2148896459
1080.0,18.5628391205,24.4654539774
1110.0,17.8388724317,23.8986954976
1140.0,17.2056192068,24.6484880171
1170.0,16.6645758119,31.7414688565
1200.0,16.2103073852,29.6830774726
1230.0,15.8315487934,32.8501232277
1260.0,15.512699873,34.836899009
1290.0,15.2355725174,36.0817649372
1320.0,14.9813274424,37.8356654817
1350.0,14.732404252,40.978789586
1380.0,14.4743070131,41.0195840284
1410.0,14.1971292767,40.3879096395
1440.0,13.8966822442,46.9259089415
1470.0,13.5749846409,47.8574921591
1500.0,13.2413708854,48.5202374075
1530.0,12.9106073655,52.7737419428
1560.0,12.6027411007,51.8501224683
1590.0,12.3421852627,49.9929692524
1620.0,12.1554016773,48.1855910444
1650.0,12.0690820601,49.8217146323
1680.0,12.1082383087,52.5312545696
1710.0,12.2939972771,51.1226519806
1740.0,12.6418900413,45.5629464189
1770.0,13.1601331741,44.5736122808
1800.0,13.8486436229,45.4122414966
1830.0,14.6984500063,44.5021439886
1860.0,15.6916826809,40.9352429922
1890.0,16.8019049849,35.1210758057
1920.0,17.9949420802,36.5668116924
1950.0,19.2318287575,34.2891760578
1980.0,20.4684662754,27.7877581324
2010.0,21.662583213,24.6418189776
2040.0,22.766578347,23.3847023072
2070.0,23.7429524883,19.1652391125
2100.0,24.5539347059,19.2194475653
2130.0,25.1714737012,16.3976496731
2160.0,25.5774346559,16.2147128503
2190.0,25.7601944113,14.5742162609
2220.0,25.7207385171,15.3035965926
2250.0,25.4673399876,18.3642761318
2280.0,25.0221104475,21.2585431018
2310.0,24.4096840147,22.4745107323
2340.0,23.6646108258,25.5186065963
2370.0,22.8214278448,26.4220096863
2400.0,21.9166843098,28.553356499
2430.0,20.9848778306,34.2860252445
2460.0,20.0642815849,40.1385228852
2490.0,19.1979537297,41.8842112402
2520.0,18.3933420566,40.0645500772
2550.0,17.6669134894,43.1217669652
2580.0,17.0307939578,45.7713903948
2610.0,16.4790286499,50.9960763933
2640.0,16.0035407556,56.2354573485
2670.0,15.6322609398,62.8663641187
2700.0,15.2839037003,61.1373611596
2730.0,14.7521105582,77.6229573796
2760.0,14.1133892055,78.6171146925
2790.0,14.0442124605,76.034146129
2820.0,14.1075638663,69.8313816336
2850.0,13.9124779002,69.7709952245
2880.0,13.6175568423,75.7805507485
2910.0,13.3340309829,79.3951503618
2940.0,12.9396831841,83.2613086408
2970.0,12.6120955291,90.0818605067
3000.0,12.1266457829,94.1125792293
3030.0,11.8743991792,93.5763178916
3060.0,11.8866847912,95.9459059464
3090.0,11.3239028246,98.1651976783
3120.0,11.323279836,101.918485193
3150.0,10.7595373747,97.7118449259
3180.0,10.5278095746,97.5761063026
3210.0,11.0594312289,98.8027056182
3240.0,12.8063195169,91.7509148371
3270.0,13.847469075,84.9189114537
3300.0,14.9248555505,84.3311739656
3330.0,15.6227938125,81.1115304599
3360.0,16.0142842138,81.8657865173
3390.0,16.8061413646,72.561837795
3420.0,17.6886101884,69.0809225071
3450.0,18.1402587146,65.0103915026
3480.0,19.3228789011,54.7805434979
3510.0,20.375228438,57.8044743728
3540.0,21.6647541554,48.9852347715
3570.0,21.9541512603,50.1842971267
3600.0,21.4840650829,48.9517343693
3630.0,22.1020631434,44.6475475103
3660.0,22.3199698767,37.0203606001
3690.0,21.3478834691,42.5111683825
3720.0,19.5259510488,40.634221384
3750.0,18.4158155808,44.9416086717
3780.0,16.7187745006,56.4847734847
3810.0,16.3299681654,48.240086483
3840.0,15.5019439805,42.8072215847
3870.0,14.0736333956,57.6680524384
3900.0,12.7791468268,45.2602964763
3930.0,12.0677879859,44.1977843048
3960.0,10.4024160057,48.2485717979
3990.0,9.93444205712,46.3576260788
4020.0,10.1184705,41.9729460717
4050.0,9.97262269723,41.0059570807
4080.0,8.71611669195,41.6054619908
4110.0,8.11755911641,43.1658212547
4140.0,8.19197980669,42.5100018847
4170.0,8.12514557052,41.099158228
4200.0,6.2428734901,41.7089770029
4230.0,6.3139309389,40.4365042423
4260.0,5.95477930228,40.2158376362
4290.0,5.28469905458,39.7180261055
4320.0,6.02275875976,42.3900700453
4350.0,6.05486004549,44.2646687938
4380.0,4.39223908101,45.2621516083
4410.0,4.44823778878,43.2493008729
4440.0,3.97785493595,43.1414028356
4470.0,3.87802482307,43.2902147208
4500.0,4.428369707,41.4821641467
4530.0,4.78017737961,42.4372464874
4560.0,4.58313054075,42.0356273566
4590.0,4.11101417136,47.116286286
4620.0,3.32938827008,45.9505712339
4650.0,4.54383458789,44.0331853678
4680.0,5.44136043093,44.6770254934
4710.0,6.50723783337,43.9001995744
4740.0,7.12323856045,41.0619880562
4770.0,9.28909393337,42.2948781304
4800.0,10.2018313205,39.7844872482
4830.0,12.0689587936,40.3197445995
4860.0,12.5872949753,38.2557625341
4890.0,13.838367432,36.1388551855
4920.0,14.2755358823,34.9768138345
4950.0,15.2120546092,31.371446444
4980.0,16.007061527,38.8182703724
5010.0,17.3025979914,33.6428301293
5040.0,16.9501170227,37.3889521189
5070.0,17.3708152654,36.065393854
5100.0,17.703590931,41.8863554378
5130.0,17.6924120198,40.1957511362
5160.0,17.6269475028,43.4861505478
5190.0,16.2049535837,31.7575472166
5220.0,16.5053713412,34.7172638146
5250.0,15.2430822315,44.8002293594
5280.0,14.3333075069,36.6197593848
5310.0,13.3122884131,35.152817537
5340.0,11.7790666408,34.3196783714
5370.0,10.3158255324,34.1864972437
5400.0,10.5859904712,37.9702867257
5430.0,9.91461499344,38.9512893701
5460.0,8.68886804896,39.462268297
5490.0,7.95344129226,39.0553547276
5520.0,7.45662947774,37.9603247315
5550.0,6.57958359479,41.0652704234
5580.0,6.85367980603,44.2534169736
5610.0,6.85286927996,43.2245977364
5640.0,6.69510267157,45.9110414283
5670.0,5.88786117271,47.1262446538
5700.0,5.87987160946,46.7603055971
5730.0,6.39268463435,47.7472138407
5760.0,5.92614862282,50.7241664347
5790.0,5.30211049755,49.2909100906
5820.0,4.65966207411,54.9961589275
5850.0,4.26096428727,57.7010430503
5880.0,3.73923002817,60.4638650571
5910.0,3.00653210509,61.5217289609
5940.0,1.92774466466,63.8081174339
5970.0,2.20312286429,65.4067166742
6000.0,2.30888831425,72.2996930161
6030.0,2.71699424386,74.4994143913
6060.0,4.38259446307,66.0117212645
6090.0,5.36066494645,66.3056118337
6120.0,5.35014477325,71.0980407573
6150.0,5.95555944184,62.4617258136
6180.0,7.27738250233,57.8285853346
6210.0,8.60976457468,56.8853273884
6240.0,9.59179823241,66.7114103804
6270.0,10.7862203819,60.4969260316
6300.0,11.8913768887,53.238402727
6330.0,13.3014940631,56.1247076293
6360.0,14.320084792,53.9706123951
6390.0,16.0966677682,50.6687499569
6420.0,17.2040157234,42.9341284909
6450.0,18.2128652531,39.3524644833
6480.0,18.4646214281,32.0836814132
6510.0,18.912922324,32.7043143145
6540.0,18.4782417559,39.5977876801
6570.0,18.000246884,37.7388504018
6600.0,18.3527916122,34.5334245701
6630.0,17.8677675186,33.6666571119
6660.0,17.6867946847,31.4756008
6690.0,16.1448491569,34.3778928835
6720.0,15.3074083056,40.6634304135
6750.0,14.0635614575,37.603413999
6780.0,12.6847640088,40.9363179109
6810.0,12.5467648667,40.3780599397
6840.0,12.236277726,39.1800873194
6870.0,12.095248141,38.1680510637
6900.0,11.1872211992,42.0150960488
6930.0,10.1675443667,38.3101077706
6960.0,9.55949632556,39.8660482221
6990.0,9.62731958975,36.8107452317
7020.0,8.91232428912,41.4764964681
7050.0,7.80627166258,42.209509293
7080.0,7.15680999705,44.2282305554
7110.0,6.19329084941,45.2358971969
7140.0,5.72827183016,51.9466510006
7170.0,5.40963549664,54.7910039266
7200.0,3.87180180864,54.8208961426
7230.0,3.94947178628,52.7242940249
7260.0,4.88844149127,52.1418122255
7290.0,4.74011238945,53.3038791022
7320.0,5.17753510131,55.1091458015
7350.0,4.81515353385,53.3630748955
7380.0,3.87612903206,53.6908390366
7410.0,5.26983997514,57.722085462
7440.0,5.42369899574,59.3117104464
7470.0,5.13635908803,55.8264704322
7500.0,5.44579320622,62.497208415
7530.0,6.45472797003,62.859656194
7560.0,6.75976749284,59.0787813945
7590.0,7.46448210757,58.782495319
7620.0,8.51379488737,55.6078268605
7650.0,9.07510016384,52.9279525876
7680.0,10.6511926114,50.6319984441
7710.0,11.7380719162,57.8148927433
7740.0,13.1104008556,46.5793257872
7770.0,14.8409131721,51.2453878704
7800.0,16.0055438901,37.777231974
7830.0,16.4742525445,36.9706309433
7860.0,16.6957797057,36.3098139759
7890.0,17.1651635964,35.0131392883
7920.0,17.8594210591,29.1681400357
7950.0,17.2840600879,31.8884649318
7980.0,17.6880194741,28.8762576004
8010.0,17.4218476763,29.4733668783
8040.0,17.5469233271,28.2192042195
8070.0,17.2070329064,26.2397009621
8100.0,16.1475230648,30.2700971434
8130.0,16.0209873931,32.4928639148
8160.0,14.9496355175,32.8859068555
8190.0,14.0730477057,32.5259476518
8220.0,12.6352620084,30.0213604566
8250.0,12.4376238266,34.9589831172
8280.0,10.4830496728,32.9328906568
8310.0,10.4198044196,32.9410500644
8340.0,10.1832563651,35.7573536765
8370.0,9.33438538583,31.1083472117
8400.0,8.17194460448,31.0587117112
8430.0,6.96067595029,35.2896953955
8460.0,5.06132922987,39.512687361
8490.0,5.08381196023,37.8824336573
8520.0,5.12488961734,38.811880193
8550.0,4.55004220935,36.9514550463
8580.0,4.39056291934,37.4078065668
8610.0,4.13496804035,37.1122819514
8640.0,3.22810613753,36.5861737463
8670.0,2.58425709594,38.8699850423
8700.0,1.40839493389,44.5275557706
8730.0,2.68247591934,39.9092609273
8760.0,1.72538753551,40.1497550186
8790.0,2.30130517756,40.0091351971
8820.0,1.36197853748,42.2936796907
8850.0,1.52086936649,45.1539737812
8880.0,0.86694494577,42.7918818292
8910.0,1.98569160503,46.6034971713
8940.0,2.31570756458,44.4766669006
8970.0,3.17887636931,47.5174394841
9000.0,3.14424354695,47.8609712025
9030.0,2.90707428047,44.2821458099
9060.0,3.53971959376,39.8324866233
9090.0,3.7241815817,41.5622248766
9120.0,5.91030405159,37.6733086162
9150.0,7.57247701711,34.5312888565
9180.0,8.82867815278,34.1811835388
9210.0,10.9510988928,31.0064499708
9240.0,12.8775373785,29.06289233
9270.0,12.3067594991,26.5683805296
9300.0,13.1909173937,27.3048023286
9330.0,12.9592165432,25.5224650557
9360.0,14.7737528685,22.3206278261
9390.0,15.6778633661,19.0963641082
9420.0,15.6642532757,18.8743108311
9450.0,15.6617201036,15.7580953297
9480.0,14.1017032311,18.7238956439
9510.0,14.857147687,17.8073570513
9540.0,14.9813112257,17.9498637419
9570.0,15.3090434717,20.2533790678
9600.0,14.8485713195,20.1464910598
9630.0,14.148191033,24.8142356848
9660.0,13.275790649,23.8813385718
9690.0,14.1399028347,26.1113896979
9720.0,12.2939714819,27.5655807318
9750.0,11.6547524242,31.0392517335
9780.0,11.676964785,29.340501297
9810.0,10.856346917,34.0681920405
9840.0,9.61452041034,34.8176416766
9870.0,9.35469141133,37.2785031352
9900.0,9.01892413768,38.7399640817
9930.0,8.20383039275,36.0250834389
9960.0,9.2630127363,40.0358313398
9990.0,9.83384359697,38.3376490424
10020.0,9.0812183165,36.8516140111
10050.0,8.34735194543,36.1380443781
10080.0,7.53203299562,39.250073389
10110.0,7.34903456429,40.0379644953
10140.0,6.3979604121,40.5011969459
10170.0,6.3493695536,42.1077055523
10200.0,5.07435362433,46.9409411316
10230.0,5.01076793892,44.448659035
10260.0,5.27602673299,44.1465581034
10290.0,5.12019491092,42.4267812371
10320.0,5.38889368029,41.8322468889
10350.0,6.88878931438,36.9707036327
10380.0,6.28711410296,33.738599524
10410.0,7.04556368924,33.4386023567
10440.0,8.42388168401,29.9401827033
10470.0,8.13482109686,27.6480635024
10500.0,8.87224021319,27.5470120956
10530.0,10.9760383284,24.3086266517
10560.0,12.6172754108,22.4329817109
10590.0,14.3131997904,19.4438566504
10620.0,15.843773257,19.2272813712
10650.0,17.4014984205,17.9623692381
10680.0,19.0582908226,16.4598034403
10710.0,19.878321933,15.9528535825
10740.0,20.1599875603,15.8472499625
10770.0,22.2242799586,15.6348018669
10800.0,22.6728577882,12.6270458446
10830.0,23.23754481,14.8509506265
10860.0,22.5365014789,17.2693741601
10890.0,21.2871373409,18.4787210257
10920.0,21.2448798764,21.7197888634
10950.0,21.1055229754,23.6419875858
10980.0,18.8382544624,27.587177538
11010.0,18.7044396051,30.0853300622
11040.0,17.9625131025,34.7442816522
11070.0,15.9130303394,32.2245560034
11100.0,16.1730615539,32.5821815021
11130.0,15.2629414522,33.2892725663
11160.0,14.400922762,35.4876146696
11190.0,14.0844629461,33.2031311617
11220.0,13.060362422,32.2505356192
11250.0,12.5843006227,31.597095775
11280.0,11.3971956214,32.8217680723
11310.0,11.4562944305,32.2882657059
11340.0,10.5004513464,30.574014658
11370.0,9.16164021249,30.6560646771
11400.0,8.08804990734,30.9107406657
11430.0,7.74997405363,31.0758722062
11460.0,7.26315381935,31.4577725878
11490.0,6.80497577694,33.3267718332
11520.0,6.4074619513,37.5709851623
11550.0,5.6053043666,37.1019425543
11580.0,5.43728377502,39.2438474459
11610.0,5.02023077814,39.9886145084
11640.0,4.99744478907,39.3980488415
11670.0,4.40787835099,39.766446271
11700.0,4.48492719557,41.1087747502
11730.0,3.90257253326,40.5297328186
11760.0,4.17426901068,40.511076559
11790.0,4.17866254435,37.7035932898
11820.0,5.55370881362,37.0487360361
11850.0,6.43019516227,36.084943235
11880.0,7.01538427824,32.0110532534
11910.0,8.03980421723,32.7917257399
11940.0,7.93156648481,36.3611658673
11970.0,9.4616239128,31.0553384943
12000.0,10.8765331187,31.4563902731
12030.0,11.7069826963,26.0265456937
12060.0,13.2535002056,26.8640542182
12090.0,14.0138113278,28.8637471573
12120.0,14.227183084,25.7435211713
12150.0,14.9233095075,24.3715934055
12180.0,15.1196258927,27.0058097727
12210.0,16.773808236,23.2441573474
12240.0,16.693525123,22.0700036417
12270.0,16.0843080479,23.7435079662
12300.0,16.1496471902,24.2447683161
12330.0,16.191152978,23.4381296808
12360.0,15.5072672288,27.5534593084
12390.0,15.5274748251,24.9140164094
12420.0,13.9181410901,25.7847676252
12450.0,13.3582794186,29.5169379682
12480.0,13.0005461197,29.0463572048
12510.0,11.813026496,30.4770708609
12540.0,11.2743529578,36.4984687949
12570.0,9.84813439048,36.9946509902
12600.0,8.92848594815,39.4219107976
12630.0,8.81842277112,41.237005486
12660.0,8.39966384416,39.5187914835
12690.0,7.64925237302,38.1797030908
12720.0,8.12337168563,38.5016823134
12750.0,7.62156703303,40.8027170674
12780.0,6.31961673664,40.1325630599
12810.0,6.26027947763,39.0820284194
12840.0,6.25270592851,39.6244954289
12870.0,5.90472680239,39.4951228636
12900.0,5.9704425007,38.8101770421
12930.0,5.16488872598,41.1198634669
12960.0,4.76856550342,43.3445794296
12990.0,4.1866985459,43.3122799369
13020.0,4.57572352888,42.381944984
13050.0,4.69594956413,43.8878142243
13080.0,4.32665307545,44.2545163585
13110.0,3.91562184216,45.8730342528
13140.0,2.90355470703,49.2192621475
13170.0,2.35530806472,47.8071846743
13200.0,2.56380420868,49.5690567509
13230.0,2.8834447866,53.5967723204
13260.0,2.63930650465,48.6265080037
13290.0,3.01390346752,49.8826470688
13320.0,3.48328614409,50.1711706999
13350.0,4.52270735433,47.9652317135
13380.0,6.09869553901,44.5420336929
13410.0,6.05554276098,38.3492948282
13440.0,5.61638785417,38.7224302517
13470.0,6.53564917921,36.607600319
13500.0,6.63292250247,37.4618041322
13530.0,7.45930184927,37.8807703143
13560.0,7.85760770948,30.6420473141
13590.0,8.5353025404,29.9385092983
13620.0,8.46785284098,27.9127011557
13650.0,8.9239968674,24.7531708768
13680.0,8.98725159904,27.1133267925
13710.0,7.9743840616,25.9921415395
13740.0,7.71149229998,32.4854213949
13770.0,7.96156373107,31.8928060688
13800.0,7.77019984177,30.082592207
13830.0,7.07372775283,33.3801438984
13860.0,6.17227610001,33.8232736744
13890.0,5.94696970075,35.8864311805
13920.0,3.41474648621,36.5571474357
13950.0,3.09093168065,34.1017220374
13980.0,3.02457666719,29.9437954196
14010.0,1.86442927799,35.119482401
14040.0,0.392091754746,38.3829406683
14070.0,-0.14004190893,37.3084394236
14100.0,-0.474478540149,39.5458170641
14130.0,-2.76051070243,41.4585911844
14160.0,-5.46228369296,49.9926778976
14190.0,-5.63270232301,48.5627903028
14220.0,-6.82059800333,50.3545267415
14250.0,-8.33936626462,51.947662199
14280.0,-8.7008341819,53.1750603392
14310.0,-8.79777509436,54.6862040398
14340.0,-9.84124061425,57.2336686131
14370.0,-9.44830591172,60.9261031122
14400.0,-9.13377799746,51.8360365059
14430.0,-8.95441237575,53.063530343
14460.0,-9.55593941642,53.9597217007
14490.0,-9.89854723874,55.5013127765
14520.0,-11.0926136076,56.9213978685
14550.0,-12.3043191934,56.1386765838
14580.0,-12.5267351337,59.468696706
14610.0,-12.6140817048,60.6904027566
14640.0,-12.5787516654,60.2766576573
14670.0,-12.3888764579,63.5993064429
14700.0,-12.02965946,54.7891515999
14730.0,-11.4980338094,54.8553484311
14760.0,-10.8020058079,51.6038946378
14790.0,-9.87880178444,48.1905212198
14820.0,-8.82038152769,42.4250104217
14850.0,-7.65910057111,33.9207210727
14880.0,-6.60034032225,33.5759903046
14910.0,-5.29141505463,32.8019947024
14940.0,-4.12019658853,27.213810645
14970.0,-2.92271782049,25.2091198366
15000.0,-1.81656370985,24.2653631998
15030.0,-0.816518000968,22.8229472184
15060.0,-0.0165723581773,22.4656532926
15090.0,0.614058179903,19.6902594858
15120.0,1.04733084712,16.9106633229
15150.0,1.21683498594,19.2971510088
15180.0,1.17976592255,20.2548769544
15210.0,0.946462687873,19.3293104644
15240.0,0.493598507616,20.925062781
15270.0,-0.119704097135,19.9326581623
15300.0,-0.862635548505,26.3933725437
15330.0,-1.70325422256,30.9247149967
15360.0,-2.60392275259,36.7277072713
15390.0,-3.52675504238,42.9601959703
15420.0,-4.43858988207,58.032687069
15450.0,-5.30876865898,65.7265887604
15480.0,-6.11391320221,63.2515040427
15510.0,-6.8372939848,69.7187746797
15540.0,-7.46994608247,70.6354922113
15570.0,-8.01039928795,74.5694394118
15600.0,-8.46412148216,75.3752460257
15630.0,-8.84228984927,72.9312329236
15660.0,-9.16058343054,79.1688962869
15690.0,-9.43710770032,75.7356619157
15720.0,-9.69074893021,79.2973478287
15750.0,-9.93902913157,83.0751886235
15780.0,-10.1962732521,89.235590557
15810.0,-10.4729907169,80.2434734293
15840.0,-10.7729943,86.0585102869
15870.0,-11.0936652755,90.9710000641
15900.0,-11.4268849151,97.9341905318
15930.0,-11.7571442524,96.0179479658
15960.0,-12.0640631555,93.4982789577
15990.0,-12.3233502743,93.4323950188
16020.0,-12.5086373971,97.9173601712
16050.0,-12.5915817483,92.3429824604
16080.0,-12.5343787102,92.367342707
16110.0,-12.3277726447,93.3845918257
16140.0,-11.9434069065,95.5481779948
16170.0,-11.2653619136,92.6656282569
16200.0,-10.6103953549,84.6745968919
16230.0,-9.85005160182,88.5814223171
16260.0,-8.8380905242,79.0019255527
16290.0,-7.72013100708,76.8945523442
16320.0,-6.51702889552,73.0024803558
16350.0,-5.31298948006,67.7173362647
16380.0,-4.18099719919,75.5669238156
16410.0,-2.98047128044,63.8524419828
16440.0,-1.87583203897,66.8629342868
16470.0,-0.903413693604,69.0081108887
16500.0,-0.0983557904311,67.7281594156
16530.0,0.521512787261,60.6864638819
16560.0,0.95112049654,64.7507793885
16590.0,1.12497368667,65.0288038996
16620.0,1.08928327753,63.0743602905
16650.0,0.889733874543,63.3952475183
16680.0,0.407396114132,70.7983926539
16710.0,-0.206691159127,73.8808610025
16740.0,-0.928860515854,77.3933623394
16770.0,-1.80548202916,76.282865537
16800.0,-2.7057299197,80.91142116
16830.0,-3.6111076281,82.7244407733
16860.0,-4.55836787512,87.1046858488
16890.0,-5.44031477991,88.2827826636
16920.0,-6.24825961767,90.8403519723
16950.0,-6.9724364661,92.965062028
