Time,Temp,RH
0.0,13.8497266867,13.9184206384
30.0,13.5325022393,15.0792991205
60.0,13.203547857,16.2927879661
90.0,12.8775993362,17.3870185325
120.0,12.5752560683,18.4025117308
150.0,12.3204039395,19.2031788062
180.0,12.1397876159,19.7918945635
210.0,12.0599109986,20.0360536046
240.0,12.1056420674,19.938025478
270.0,12.2984191159,19.4141267047
300.0,12.6534272512,18.4632323569
330.0,13.1789607154,17.0730749067
360.0,13.8749385609,15.273973529
390.0,14.7323624052,13.0719521656
420.0,15.7332422933,10.5669824202
450.0,16.8511468978,7.80174081131
480.0,18.0523090587,4.95148300782
510.0,19.2971932358,2.06981831329
540.0,20.5424591634,-0.775995265553
570.0,21.7432168608,-3.38792862261
600.0,22.8554020832,-5.45849387961
630.0,23.8381329841,-7.53234411902
660.0,24.6559011533,-8.12724638323
690.0,25.2804569878,-10.5816836187
720.0,25.6922614029,-10.8364995984
750.0,25.8814309501,-11.0899946812
780.0,25.8480968849,-9.90369073471
810.0,25.6021771974,-8.56644483344
840.0,25.1625708942,-9.13862424885
870.0,24.5558339874,-8.28503436
900.0,23.8144290907,-7.50192916103
930.0,22.9746660393,-6.11600693969
960.0,22.0744712511,-4.32019033532
990.0,21.1511338148,-2.66652028519
1020.0,20.2391762703,-0.849451121606
1050.0,19.3684879872,0.767143606073
1080.0,18.5628401361,2.27120171607
1110.0,17.8388739729,3.51805293832
1140.0,17.2056209713,4.68883204892
1170.0,16.66457631,5.74794735335
1200.0,16.2103089161,6.647055629
1230.0,15.8315543075,7.60212073661
1260.0,15.5127033928,8.36164268201
1290.0,15.2355734275,9.05269913402
1320.0,14.9813283546,9.9150981304
1350.0,14.7324059656,10.8111786965
1380.0,14.4743096085,11.7942616421
1410.0,14.197132099,12.8806785786
1440.0,13.8966988589,13.9822741755
1470.0,13.5752443412,15.1659702687
1500.0,13.2415690103,16.4096262115
1530.0,12.9106608093,17.6433123838
1560.0,12.6028031992,18.5737250078
1590.0,12.3422282737,19.4575887143
1620.0,12.1554063624,20.0676332026
1650.0,12.0690891015,20.3935641603
1680.0,12.1082433996,20.2798415005
1710.0,12.2940183506,19.7555980971
1740.0,12.6418938447,18.7751758545
1770.0,13.160138827,17.3949521707
1800.0,13.8486973514,15.6002797825
1830.0,14.698584401,13.4093410894
1860.0,15.6918447749,10.8965557347
1890.0,16.8020889531,8.14559176071
1920.0,17.9955798191,5.2294796851
1950.0,19.2328107506,2.25252544336
1980.0,20.470476729,-0.622385890043
2010.0,21.6637217901,-3.39901528857
2040.0,22.7685121185,-5.92799409095
2070.0,23.743999466,-8.08433665535
2100.0,24.5547058048,-9.83383414568
2130.0,25.1724109838,-11.1579512267
2160.0,25.5776068982,-11.9447341789
2190.0,25.7604377065,-12.2737548129
2220.0,25.7210627232,-12.0871718915
2250.0,25.4694251886,-11.2716112162
2280.0,25.0244510594,-10.3250684572
2310.0,24.4127166189,-9.11274782052
2340.0,23.6667091307,-7.40880842745
2370.0,22.822756631,-5.63759955088
2400.0,21.9188031182,-3.53707531377
2430.0,20.9921547673,-1.33505447678
2460.0,20.0773487666,0.711446193672
2490.0,19.2042866277,4.42532246911
2520.0,18.3967499176,3.72511877099
2550.0,17.6713883403,5.90467672469
2580.0,17.0372394853,8.77963176065
2610.0,16.4958028669,10.4360116476
2640.0,16.0416489778,10.0155395162
2670.0,15.6635132914,11.4108930485
2700.0,15.3457842412,9.72836597786
2730.0,15.0702745706,11.0394852391
2760.0,14.8181414931,10.6710629516
2790.0,14.5718139962,10.9768802412
2820.0,14.3167845572,12.5064753076
2850.0,14.0431330438,13.0082277491
2880.0,13.7466702597,14.0116496518
2910.0,13.4296136176,15.0862273274
2940.0,13.1007451281,16.2514383424
2970.0,12.7750323532,17.3207018176
3000.0,12.4727368286,18.2953847678
3030.0,12.2180670056,19.1273204134
3060.0,12.0374680887,19.710751335
3090.0,11.9576655213,19.9656659069
3120.0,12.0035982332,19.8521373129
3150.0,12.1963867344,19.3396491073
3180.0,12.5514812031,18.3868769394
3210.0,13.0771199231,16.9954100237
3240.0,13.7732153201,15.181550283
3270.0,14.630750529,12.9819341517
3300.0,15.6317375053,10.4600014289
3330.0,16.7497544685,7.69372280123
3360.0,17.9510308306,4.77741010516
3390.0,19.1960271698,1.81245312805
3420.0,20.4414050589,-1.09642119161
3450.0,21.6422759,-3.84197556738
3480.0,22.7545698137,-6.2972096252
3510.0,23.7374179645,-8.47341857079
3540.0,24.5552996212,-10.1790933326
3570.0,25.17996832,-11.3260663759
3600.0,25.5918860794,-11.9789826673
3630.0,25.7811684089,-12.4137600551
3660.0,25.7479471799,-11.8923741808
3690.0,25.5021408139,-11.6532671708
3720.0,25.0626475307,-10.5147522794
3750.0,24.4560237219,-9.33908022327
3780.0,23.7147318334,-7.84817123066
3810.0,22.8750822655,-5.41251202971
3840.0,21.9750007625,-4.29843422439
3870.0,21.0517765655,-2.64117183596
3900.0,20.1399322894,-0.805717456876
3930.0,19.2693572896,0.67387415954
3960.0,18.4638227454,2.33756263162
3990.0,17.7399698977,3.65583383435
4020.0,17.1068302403,4.72931659278
4050.0,16.5658990058,5.9049709785
4080.0,16.1117449883,6.69107007918
4110.0,15.7331037757,7.86167638368
4140.0,15.4143661658,8.75696878628
4170.0,15.1373497095,10.1469790903
4200.0,14.8832179924,10.8571296063
4230.0,14.6344087584,14.8200093779
4260.0,14.376425669,14.4887461285
4290.0,14.0993623649,14.9260244781
4320.0,13.7990427786,17.2576740647
4350.0,13.4777018297,22.1891253155
4380.0,13.1441402025,23.4415988006
4410.0,12.8133454598,22.6533589844
4440.0,12.5056016807,24.8477767772
4470.0,12.24514043,25.5552097024
4500.0,12.0584322474,26.8512310576
4530.0,11.9722288085,29.2211880887
4560.0,12.0114961214,30.7156839597
4590.0,12.1973842326,29.0723769124
4620.0,12.5453739872,27.3068916378
4650.0,13.0637325491,24.3474725728
4680.0,13.7524043729,19.9520219802
4710.0,14.6024051331,18.7852501963
4740.0,15.5957789286,16.5690248811
4770.0,16.7061382782,10.4584058468
4800.0,17.8997419822,7.65423379426
4830.0,19.1370870401,5.32926707918
4860.0,20.3748676765,-0.13325456235
4890.0,21.5682271855,-2.94338557825
4920.0,22.673131713,-5.66326851824
4950.0,23.6487328167,-8.02325242489
4980.0,24.4595528741,-9.84918315584
5010.0,25.0773710437,-11.0171811233
5040.0,25.4826753404,-11.4880533078
5070.0,25.6656199871,-11.9958108332
5100.0,25.6263550407,-11.7757380922
5130.0,25.3748437742,-11.4097920693
5160.0,24.929983825,-10.1770339618
5190.0,24.318364597,-8.77547638127
5220.0,23.5724705412,-7.51649910239
5250.0,22.7286315279,-5.58532967955
5280.0,21.8247922346,-3.4055184667
5310.0,20.8982583501,-1.79937155673
5340.0,19.9835665955,0.893239756078
5370.0,19.1106186934,1.89382981803
5400.0,18.3031963287,4.44982863674
5430.0,17.5779490483,7.36229357807
5460.0,16.9439146185,7.19068030662
5490.0,16.4025922486,11.6881835172
5520.0,15.948552768,12.945906508
5550.0,15.5705314763,13.3354652498
5580.0,15.2529168585,15.7619672027
5610.0,14.977521617,16.5869600679
5640.0,14.7255029261,22.0672317605
5670.0,14.4792898351,24.2776569847
5700.0,14.2243750823,23.2849960011
5730.0,13.9508382189,23.0322954909
5760.0,13.654489934,21.0804229334
5790.0,13.3375479042,21.8202433138
5820.0,13.0087940018,23.9020805034
5850.0,12.6831958163,24.0972855682
5880.0,12.3810149401,21.8743594372
5910.0,12.1264597203,22.1773557024
5940.0,11.9459754847,23.1625863471
5970.0,11.8662873624,21.7038140672
6000.0,11.9123343884,21.596323364
6030.0,12.1052379788,19.9148203035
6060.0,12.4604474516,18.6948161534
6090.0,12.9862010805,17.2088408283
6120.0,13.6824112907,15.1976638234
6150.0,14.5400611201,13.2298701397
6180.0,15.5411628301,11.92465152
6210.0,16.6592905432,9.69712756125
6240.0,17.8606758385,7.04881518692
6270.0,19.1057728721,4.81389582406
6300.0,20.3512850962,3.3729214894
6330.0,21.5522756702,-1.89561103913
6360.0,22.6646886265,-3.77494990349
6390.0,23.6476484338,-5.96949240213
6420.0,24.4656451461,-9.00321162025
6450.0,25.0904284714,-8.27277231179
6480.0,25.5024613162,-9.43240249652
6510.0,25.6918587372,-11.0939633666
6540.0,25.6587525015,-11.1204637333
6570.0,25.4130604369,-9.54930834376
6600.0,24.9736806927,-4.95024968183
6630.0,24.3671678716,-3.24310492702
6660.0,23.625993277,-1.41641883917
6690.0,22.7864541475,2.28587108273
6720.0,21.8864842344,3.42464751251
6750.0,20.963356898,4.55367841864
6780.0,20.051621161,6.06242357034
6810.0,19.181170825,6.79588934967
6840.0,18.3757585359,5.00293644464
6870.0,17.6519833246,6.57150041127
6900.0,17.0187838197,8.53120919795
6930.0,16.4779824308,11.6057301405
6960.0,16.0237242867,9.55610621469
6990.0,15.6451107314,9.07184118104
7020.0,15.3227567738,10.5750823935
7050.0,15.0428582409,10.7676459858
7080.0,14.7933605719,10.5558201206
7110.0,14.5431738452,11.0688743884
7140.0,14.2829625049,11.8570734661
7170.0,14.0055572656,12.868415074
7200.0,13.711163103,13.8231575086
7230.0,13.3909896778,15.1192027884
7260.0,13.0574322148,16.2051379342
7290.0,12.7269949381,17.3373385571
7320.0,12.419371116,18.3717374188
7350.0,12.1590401649,19.2417821227
7380.0,11.9724298383,19.8236273553
7410.0,11.8863631595,20.1157498274
7440.0,11.9256919462,20.0783556586
7470.0,12.111749384,19.5361358854
7500.0,12.459772643,18.634819375
7530.0,12.9783395572,17.2797343804
7560.0,13.6670838001,15.5144769801
7590.0,14.5172319305,13.4805838443
7620.0,15.5107378951,11.3029081686
7650.0,16.6212158167,9.01458710463
7680.0,17.8149366957,5.34265424539
7710.0,19.0523974515,3.00707567427
7740.0,20.2902935952,0.964891167151
7770.0,21.483768165,-1.57220024353
7800.0,22.5887889523,-2.58319594809
7830.0,23.564505797,-4.41367425623
7860.0,24.3754419794,-5.93654693932
7890.0,24.9933764505,-6.38609297901
7920.0,25.398803218,-8.20752611739
7950.0,25.5818644367,-10.5463278299
7980.0,25.5427195915,-9.68314189128
8010.0,25.2913132022,-8.59745356569
8040.0,24.8465684934,-9.49565644253
8070.0,24.2350648243,-4.47610789963
8100.0,23.4892852043,-5.72234068158
8130.0,22.6455577217,-4.88725505347
8160.0,21.7418244393,-1.64925964332
8190.0,20.8153558326,0.842375842016
8220.0,19.9007820625,2.72750029659
8250.0,19.0278651304,4.51022844095
8280.0,18.2203125345,5.01164461019
8310.0,17.4951016021,6.09482093576
8340.0,16.8607126779,8.1977134519
8370.0,16.3194971711,8.12502848858
8400.0,15.866104927,10.121760728
8430.0,15.4873117107,9.44927471888
8460.0,15.1673554574,11.7376173281
8490.0,14.894645701,12.7586782066
8520.0,14.6422349488,12.4530796291
8550.0,14.3951165413,14.3987003397
8580.0,14.1390756633,16.2750858262
8610.0,13.8583594763,13.8980798502
8640.0,13.5525888148,15.6052035641
8670.0,13.2328231636,15.9102606938
8700.0,12.896992283,16.8467371553
8730.0,12.5895764455,20.995448143
8760.0,12.2927802316,21.788010832
8790.0,12.0442004515,19.9274946844
8820.0,11.8598267129,22.2942676524
8850.0,11.7747024166,25.7686420713
8880.0,11.8186683424,25.7923019391
8910.0,12.0141651094,26.3085686244
8940.0,12.3532052135,24.5868268189
8970.0,12.8789980323,24.0047156696
9000.0,13.5898903128,24.7475312818
9030.0,14.4436874458,23.1483257117
9060.0,15.39629219,21.5195703771
9090.0,16.5049594344,19.2596819283
9120.0,17.6469970198,14.3087791551
9150.0,18.9005957393,11.0747507961
9180.0,19.69879677,8.88042547213
9210.0,20.8335803995,6.6637565212
9240.0,22.0776331411,5.67019865766
9270.0,23.2466361888,2.40411632693
9300.0,23.6724146255,3.96725773105
9330.0,23.4294726091,1.93696605963
9360.0,24.1206509423,2.01115426214
9390.0,24.977268039,0.381287593114
9420.0,24.9445527799,0.00528220728891
9450.0,24.9103047339,1.81089319945
9480.0,24.1442886121,3.3285948664
9510.0,23.7399435033,4.26111697153
9540.0,22.8751879124,6.74747425675
9570.0,22.3096318216,8.28441213509
9600.0,20.8230457525,7.87195383774
9630.0,19.6152236653,10.4035802834
9660.0,18.0777970399,10.6310211321
9690.0,17.8849982949,13.2637341351
9720.0,16.5474023373,18.8312112863
9750.0,16.5492796063,15.3629746505
9780.0,15.3166777097,21.4839958177
9810.0,14.802368867,19.8757342452
9840.0,15.0714141078,20.3949718014
9870.0,15.348956522,16.7951163144
9900.0,14.8664142677,19.0246735206
9930.0,14.6971861635,20.6532160258
9960.0,14.217818073,21.5828563355
9990.0,14.0990238908,26.7152855731
10020.0,13.4971135451,27.6819999524
10050.0,13.7706548165,27.1148696811
10080.0,13.4861725036,27.4854144192
10110.0,13.207769248,31.8532094571
10140.0,12.8409538575,35.6205307299
10170.0,12.6254424726,34.7167942261
10200.0,12.3181047643,37.1738565696
10230.0,12.0547615591,38.524454829
10260.0,11.7219856562,39.0975609427
10290.0,11.586426104,39.87906589
10320.0,11.5460456013,39.7757070083
10350.0,11.9396668967,40.606985145
10380.0,12.2265496206,40.6590795603
10410.0,12.6730754643,40.1800844941
10440.0,13.2249241285,38.5160346426
10470.0,14.1897871728,36.5819839908
10500.0,14.6869370315,35.9371990116
10530.0,16.2971589535,31.3827471711
10560.0,17.548184228,27.6360078453
10590.0,18.6726761933,22.8009114349
10620.0,19.5179967107,19.5357331943
10650.0,21.2967664908,17.9484357419
10680.0,22.141239224,12.5429463842
10710.0,23.19484353,10.2175853133
10740.0,23.5332408304,10.2857581561
10770.0,23.3278201599,5.70505970819
10800.0,24.3460931069,6.27499264561
10830.0,23.7772285037,2.96651635285
10860.0,23.6192564606,5.66545155085
10890.0,23.388004465,3.78169616562
10920.0,22.6483384723,1.29016362753
10950.0,22.356479472,3.4396840831
10980.0,21.6338888766,2.10644538143
11010.0,20.7585935917,3.17697820936
11040.0,19.3299642769,3.04651343607
11070.0,18.6346081534,4.50027397647
11100.0,17.4630724138,4.92569082189
11130.0,16.3188335294,7.73096784818
11160.0,15.4746296855,11.1561215082
11190.0,15.393333845,8.03358530695
11220.0,14.5364417441,6.85633078804
11250.0,14.39516796,8.41683610157
11280.0,13.5638468864,9.66474232196
11310.0,12.9008008939,9.06535834146
11340.0,13.2153289313,10.3123505247
11370.0,12.6290612164,11.5080223584
11400.0,12.3578010284,13.8760173262
11430.0,12.2821473771,16.2708318065
11460.0,11.657625454,16.4360196227
11490.0,13.4582896389,15.412965847
11520.0,12.7780836688,15.7970693275
11550.0,11.582751019,19.1125985963
11580.0,10.4002668978,18.3577913858
11610.0,10.7209354358,22.8473028207
11640.0,10.4561890679,24.4666841623
11670.0,10.090317035,24.684841412
11700.0,10.7164293086,24.0303393452
11730.0,11.2421848902,23.0030895913
11760.0,11.5824091509,24.8916725892
11790.0,11.8240886051,24.4461860616
11820.0,11.7999844069,26.8417339654
11850.0,12.6547610715,22.8647669483
11880.0,13.3486178132,23.1396844424
11910.0,14.2990669304,22.0687981302
11940.0,14.9520781952,21.141982981
11970.0,16.0968393662,16.8705592522
12000.0,17.4611654327,16.4353751591
12030.0,18.749798535,13.8223656245
12060.0,19.9973866744,12.2449302966
12090.0,21.1081741356,7.80097997997
12120.0,22.293920076,6.61013593643
12150.0,23.3852463314,2.89403778591
12180.0,24.1721763186,3.10638353266
12210.0,24.7972223035,1.70739758429
12240.0,25.2005301525,1.63629028265
12270.0,25.3879163635,-0.770677553685
12300.0,25.4462128121,2.73330749598
12330.0,25.1889619681,2.57888758771
12360.0,24.7789845473,1.99974252018
12390.0,24.1872074296,2.56725063782
12420.0,23.3912792475,4.33275156339
12450.0,22.5060640758,6.87221148109
12480.0,21.3625047451,12.5847969846
12510.0,20.5152107234,12.3614670186
12540.0,19.4605371852,17.8326642832
12570.0,18.9435960657,16.5829702477
12600.0,18.1768987292,16.0849035866
12630.0,17.493269439,13.1084797763
12660.0,16.8447218522,13.7060774885
12690.0,16.309126629,13.2557412443
12720.0,15.8540681098,11.4653827755
12750.0,15.4753377459,13.9377045722
12780.0,15.1634608866,15.9865659088
12810.0,14.8743733916,15.8526430149
12840.0,14.5142450469,16.882827497
12870.0,14.3183093799,17.4522486194
12900.0,14.0770575348,14.7687831974
12930.0,13.7646781101,18.5963849414
12960.0,13.4546811502,20.6347826195
12990.0,13.1394727528,20.7772759506
13020.0,12.8769980628,21.8980210061
13050.0,12.5787337566,21.2504775991
13080.0,12.2761799827,22.2592147746
13110.0,12.0135663279,23.1462864374
13140.0,11.8229635681,24.3159429778
13170.0,11.7449099091,26.5089938281
13200.0,11.7834942269,24.8640686384
13230.0,11.9707925313,25.380138563
13260.0,12.3122285483,24.7217585668
13290.0,12.8390026556,24.3533656623
13320.0,13.5298299573,23.4183966528
13350.0,14.3805857477,21.7528531236
13380.0,15.3739663246,20.4157800017
13410.0,16.4838383745,17.698310891
13440.0,17.6769960843,15.6498807908
13470.0,18.9141396794,8.20624705897
13500.0,20.1461395512,6.43237744537
13530.0,21.3472387681,4.0783953521
13560.0,22.4465717126,1.38222173768
13590.0,23.4267561005,-1.07283432353
13620.0,24.2309028362,-0.846022033644
13650.0,24.8545810157,-5.46376462392
13680.0,25.2265210309,-3.85071883721
13710.0,25.3995813623,-5.97777140653
13740.0,25.346774111,-5.43141408596
13770.0,24.9923592817,-4.53061426377
13800.0,24.5692312614,-5.82302718994
13830.0,24.0191430967,-6.48850370984
13860.0,22.6347445725,-4.19730129379
13890.0,22.3033164972,-5.31538263019
13920.0,21.4036285971,-3.53523347417
13950.0,20.605312804,-1.22715624501
13980.0,19.3563464597,-0.194184801008
14010.0,18.2037543087,4.10612861301
14040.0,17.3971950764,6.51778237328
14070.0,16.8271696536,8.18089552042
14100.0,16.4385020796,11.1780137032
14130.0,16.0657379359,10.876112024
14160.0,14.9985063512,12.0597941729
14190.0,15.1049841654,16.9591681432
14220.0,14.7367549552,15.7718419596
14250.0,14.6567308603,17.8128260435
14280.0,13.9401304181,21.44311327
14310.0,14.1223668559,24.8388867346
14340.0,13.8950073686,28.5990471294
14370.0,13.6614827185,29.3256350591
14400.0,13.3958292928,31.7217169314
14430.0,13.0661942578,34.4589344782
14460.0,12.7352590363,32.9732584861
14490.0,12.4262973586,30.4903418219
14520.0,12.1372270706,33.464286415
14550.0,11.8588884613,34.1051907184
14580.0,11.7274906079,34.4627917849
14610.0,11.6373779427,28.9652020635
14640.0,11.6868912056,30.2179341361
14670.0,11.8831712641,28.9689397183
14700.0,12.201751953,30.5233257287
14730.0,12.7598969087,29.2922989203
14760.0,13.440285906,28.8239799734
14790.0,14.2806163744,26.4960506307
14820.0,15.2812110276,25.8542362333
14850.0,16.3960119212,25.5482812346
14880.0,17.579691086,21.0296615584
14910.0,18.8180455938,17.0628794424
14940.0,19.8669964109,17.4027785707
14970.0,20.5987682969,15.220195422
15000.0,21.5800407345,14.988252832
15030.0,22.7457056471,13.7339412504
15060.0,23.7313692537,9.9162854404
15090.0,24.5845537304,4.23423336585
15120.0,24.9896425788,5.75718698459
15150.0,24.6275762821,1.24625641265
15180.0,23.7359876656,4.68719571598
15210.0,24.1169229929,6.59384031518
15240.0,24.5053416952,3.80020122016
15270.0,23.6996984869,3.84665878682
15300.0,22.1905877543,5.65434372464
15330.0,21.8929377227,4.97854906211
15360.0,20.9270607007,8.265691463
15390.0,20.3947266364,7.9672995835
15420.0,19.6656669036,7.63612142896
15450.0,18.882215128,10.6713526021
15480.0,18.1246575439,8.37595512983
15510.0,17.3758888633,10.0280371762
15540.0,16.5729256537,12.9231139866
15570.0,14.5972907855,15.1505431566
15600.0,14.0569886483,16.6332765507
15630.0,13.023369266,18.8628870748
15660.0,12.3378219694,19.8309385319
15690.0,12.6467807717,16.6535723576
15720.0,11.7447730685,21.0176137249
15750.0,11.6161013723,23.7777897426
15780.0,11.1795815217,23.5272086857
15810.0,11.5374722368,27.5152435356
15840.0,11.8792981849,26.7405210503
15870.0,12.4917210173,30.0457504463
15900.0,11.969959489,29.501734561
15930.0,11.6511030633,31.8418460226
15960.0,9.63242847224,34.4862728862
15990.0,10.1207388807,35.311722499
16020.0,8.93102368242,35.799869719
16050.0,9.50311518049,30.9747909325
16080.0,9.76515662968,29.2566927373
16110.0,9.52580395298,27.5723410432
16140.0,10.2761794909,26.802909931
16170.0,10.9597790266,26.2846303799
16200.0,11.5825578961,22.9951822408
16230.0,12.8177906734,20.9623269294
16260.0,12.9073939668,16.4951115348
16290.0,14.7993956425,13.1721543224
16320.0,16.089717531,14.3130916986
16350.0,17.2632890909,12.1753924275
16380.0,18.4276670853,10.2461664143
16410.0,19.437936773,10.5453374961
16440.0,18.0497340626,10.4938454689
16470.0,18.4619342124,11.1113553321
16500.0,18.8621866689,9.38741239337
16530.0,20.0515134299,5.99426676896
16560.0,20.0086749067,5.3670962121
16590.0,21.2497852589,3.26506484404
16620.0,19.9012391152,6.77507873307
16650.0,19.3429862596,8.97133852702
16680.0,19.1963195076,10.1783871081
16710.0,18.4198031172,12.332940059
16740.0,19.3942839842,15.8457761203
16770.0,18.0261087537,18.0835402618
16800.0,17.7795717274,20.5420672975
16830.0,17.2846595942,25.0279758071
16860.0,16.5427655584,26.2714756294
16890.0,15.547394411,26.7115252236
16920.0,15.4292924738,27.4979672955
