Time,Temp,RH
0.0,-10.4434441879,103.85929224
30.0,-10.7606017547,104.893909704
60.0,-11.0896003364,106.290813798
90.0,-11.4152004336,106.782325759
120.0,-11.7175869002,107.888767201
150.0,-11.9723408366,107.566393011
180.0,-12.1530049293,109.098604364
210.0,-12.2331377525,108.971888818
240.0,-12.1872352348,109.146162826
270.0,-11.9947206515,108.640932101
300.0,-11.6397519799,107.596515189
330.0,-11.1142029959,106.3952768
360.0,-10.4181383495,104.828407938
390.0,-9.56074864727,102.662198554
420.0,-8.55994839727,99.985866874
450.0,-7.44206850287,97.082541986
480.0,-6.24090712917,94.9576191313
510.0,-4.99602397969,91.9728071375
540.0,-3.7507585739,88.9932017453
570.0,-2.55000081085,85.6775208064
600.0,-1.437815609,82.4588522741
630.0,-0.45508472462,80.1511385015
660.0,0.362683960199,78.8510009787
690.0,0.987239374476,76.3382663654
720.0,1.39904408673,75.9802553082
750.0,1.58821330713,75.9739547614
780.0,1.55487902739,76.6624826246
810.0,1.30895933107,76.8802661359
840.0,0.869353042487,78.4238496909
870.0,0.262616073639,79.6200871179
900.0,-0.478788826074,80.69347146
930.0,-1.31855187325,82.8161256396
960.0,-2.21874666603,84.9978086626
990.0,-3.14208412565,86.0804754318
1020.0,-4.05404167371,88.995492061
1050.0,-4.9247299567,90.6164165709
1080.0,-5.73037780789,92.1842990132
1110.0,-6.45434397115,93.3067480635
1140.0,-7.08759697284,94.6006015562
1170.0,-7.62864163413,95.4385220103
1200.0,-8.08290902802,96.1808084288
1230.0,-8.46166363659,97.2431409703
1260.0,-8.78051455124,97.5621854626
1290.0,-9.05764451404,96.1927161944
1320.0,-9.31188958752,97.3962513504
1350.0,-9.56081197431,97.4293168516
1380.0,-9.81890832898,94.7812139184
1410.0,-10.0960858378,97.1956121487
1440.0,-10.3965190831,97.9415495289
1470.0,-10.7179736023,98.839514106
1500.0,-11.0516489328,100.281479102
1530.0,-11.3825571311,99.3363134053
1560.0,-11.6904147413,100.965296565
1590.0,-11.9509896361,96.7692690211
1620.0,-12.1378115304,90.759770624
1650.0,-12.2241286938,84.5273033556
1680.0,-12.1849744991,85.0757722082
1710.0,-11.9991994874,91.7828516073
1740.0,-11.6513240855,81.3320394424
1770.0,-11.1330791088,85.4724119056
1800.0,-10.4445205839,77.0202205567
1830.0,-9.59463352022,77.8906032753
1860.0,-8.6013730247,81.4175034783
1890.0,-7.4911288263,74.9090354779
1920.0,-6.29763796022,80.0981121114
1950.0,-5.06040708981,74.5456535472
1980.0,-3.82274072982,76.3480649371
2010.0,-2.62949599839,72.0420045322
2040.0,-1.5247052281,71.6765130151
2070.0,-0.549218341438,72.3090514167
2100.0,0.261487951586,71.3898863385
2130.0,0.879193104656,74.3529014194
2160.0,1.28438930349,74.8097080025
2190.0,1.46722021923,74.750084948
2220.0,1.42784525799,76.6787224704
2250.0,1.17620864311,78.2895270133
2280.0,0.731234002739,79.472199302
2310.0,0.11950059456,80.9314104344
2340.0,-0.626507168444,82.5171690243
2370.0,-1.47046092105,84.1805138732
2400.0,-2.37441402824,86.0357126287
2430.0,-3.30106231307,87.8144883531
2460.0,-4.21586844787,89.5296073842
2490.0,-5.08893067808,91.1406925087
2520.0,-5.89646679722,92.5987915645
2550.0,-6.6218279627,93.8958324029
2580.0,-7.25597778473,94.9996172409
2610.0,-7.7974145529,95.9325386395
2640.0,-8.25156853524,96.9194135822
2670.0,-8.62970430546,97.6732352006
2700.0,-8.9474332816,98.4643499302
2730.0,-9.22294216198,99.2118662676
2760.0,-9.47507599521,100.054484867
2790.0,-9.72140359561,100.860283897
2820.0,-9.97643274964,101.638051725
2850.0,-10.2500845126,102.731442945
2880.0,-10.5465472581,103.902192097
2910.0,-10.8636006905,105.0050049
2940.0,-11.1924700899,106.334331542
2970.0,-11.5181804236,107.441917316
3000.0,-11.8204766796,108.29944016
3030.0,-12.0751397767,109.161338591
3060.0,-12.2557466868,109.680202571
3090.0,-12.335545842,110.123226493
3120.0,-12.2895966629,110.102178478
3150.0,-12.0967638047,109.557883767
3180.0,-11.7415401428,108.651967046
3210.0,-11.2160255715,107.27845491
3240.0,-10.519991048,105.472974055
3270.0,-9.66246408467,103.287590933
3300.0,-8.66147603348,100.770236564
3330.0,-7.54343544082,97.9901674724
3360.0,-6.34208057714,95.0758580109
3390.0,-5.09716076582,92.1039023668
3420.0,-3.85178874883,89.1542908192
3450.0,-2.65085536864,86.389676637
3480.0,-1.53863142958,83.9069348077
3510.0,-0.55579577936,81.7317813677
3540.0,0.262083544563,79.994037306
3570.0,0.886753192235,78.7032327393
3600.0,1.29866844652,77.9038431817
3630.0,1.48795097737,77.5970660105
3660.0,1.45472958307,77.7635155321
3690.0,1.20892298508,78.3743189197
3720.0,0.769429780125,79.3661943885
3750.0,0.162806200207,80.6840804001
3780.0,-0.578484209817,82.2338550158
3810.0,-1.41813247691,83.9473877021
3840.0,-2.31821677435,85.7372939041
3870.0,-3.24144100304,87.5224996218
3900.0,-4.15328550464,89.2565573283
3930.0,-5.02386045555,90.904814973
3960.0,-5.82939508227,92.3915774273
3990.0,-6.55324786965,93.7317143986
4020.0,-7.18638750495,94.9022131284
4050.0,-7.72731881232,95.9270039442
4080.0,-8.18147218472,96.8444141207
4110.0,-8.56011393107,97.6770347467
4140.0,-8.87885109808,98.4680491149
4170.0,-9.15586721124,99.2570254806
4200.0,-9.40999862058,100.089097692
4230.0,-9.65880804294,100.98002886
4260.0,-9.91679088975,101.970511331
4290.0,-10.1938552097,103.041105236
4320.0,-10.4941748778,104.187103122
4350.0,-10.8155158079,105.380589979
4380.0,-11.1490776358,106.580947265
4410.0,-11.4798722261,107.731841766
4440.0,-11.7876161377,108.768999811
4470.0,-12.0480773059,109.624018514
4500.0,-12.2347856506,110.227436644
4530.0,-12.3209890382,110.514057707
4560.0,-12.2817211698,110.42597535
4590.0,-12.0958322007,109.929553309
4620.0,-11.7478432125,108.992668209
4650.0,-11.229484352,107.610775948
4680.0,-10.5408120485,105.814893784
4710.0,-9.69081120192,103.624163084
4740.0,-8.6974366103,101.10959313
4770.0,-7.58707871896,98.3466535693
4800.0,-6.39347338727,95.4141689645
4830.0,-5.15612858791,92.4352678163
4860.0,-3.91834814998,89.4166117292
4890.0,-2.72498709966,86.6074734342
4920.0,-1.62008392071,84.1289113132
4950.0,-0.644484315776,81.7614751387
4980.0,0.166337832517,80.0583269182
5010.0,0.784155101632,78.9291412768
5040.0,1.18946512866,78.1444840859
5070.0,1.37241013702,77.7450340416
5100.0,1.33314930802,77.9616038185
5130.0,1.08162705663,78.3651516383
5160.0,0.636766606003,78.7756105439
5190.0,0.025151287669,79.1068235196
5220.0,-0.720743774289,79.1816190023
5250.0,-1.56458098508,80.2934919252
5280.0,-2.46842236321,82.2889680421
5310.0,-3.39493878071,80.5513535734
5340.0,-4.30964857496,81.0496004705
5370.0,-5.18258502309,83.6068638999
5400.0,-5.99001709326,86.8861735119
5430.0,-6.71526116224,87.882165422
5460.0,-7.34929736115,87.5657906096
5490.0,-7.89060166293,89.882615354
5520.0,-8.3446621196,90.5564557394
5550.0,-8.72265011352,89.611279252
5580.0,-9.04008223496,91.8670468273
5610.0,-9.31549749033,90.6697284028
5640.0,-9.56709731969,90.4130575652
5670.0,-9.81363614288,92.2614646919
5700.0,-10.0687437092,96.1493390025
5730.0,-10.3421736987,98.6892066331
5760.0,-10.638646438,99.4510954206
5790.0,-10.9548701241,98.608363192
5820.0,-11.2842585373,99.8203437139
5850.0,-11.6093033453,98.7003401265
5880.0,-11.9107870387,102.859152425
5910.0,-12.1664975194,100.830273179
5940.0,-12.3470558279,103.869078304
5970.0,-12.4265222815,102.627119713
6000.0,-12.3800793509,102.657486818
6030.0,-12.187520256,97.5127741691
6060.0,-11.8319429313,95.2504803509
6090.0,-11.3055353862,89.8882700727
6120.0,-10.6089162812,95.0671396508
6150.0,-9.7480716215,95.3838303629
6180.0,-8.74968435653,90.5656382935
6210.0,-7.63143988687,83.6939528401
6240.0,-6.43157113815,82.1975774489
6270.0,-5.18596571427,85.698071637
6300.0,-3.94170038386,80.2056780706
6330.0,-2.74041750691,78.2090086743
6360.0,-1.6280532645,71.3388493839
6390.0,-0.645407210454,73.8471310566
6420.0,0.172527354837,70.7490910248
6450.0,0.7972767562,70.1578412034
6480.0,1.20947977097,66.2875466613
6510.0,1.39876290302,59.5045170735
6540.0,1.36557156284,61.9032353666
6570.0,1.11985986671,58.3253577972
6600.0,0.680507726656,53.1078960541
6630.0,0.0740340598184,54.3155285301
6660.0,-0.667190675261,64.7922807343
6690.0,-1.50674997465,70.9328183685
6720.0,-2.40672086057,72.7184639281
6750.0,-3.32982990536,75.6369157108
6780.0,-4.24155892237,76.8012608486
6810.0,-5.11201865425,75.077795573
6840.0,-5.9174379372,81.5191099901
6870.0,-6.64117547094,82.7956692485
6900.0,-7.27419980917,88.7565883988
6930.0,-7.81501575798,89.8162284805
6960.0,-8.26905439534,91.2964863751
6990.0,-8.64758020662,92.4992937658
7020.0,-8.96620228221,94.551032595
7050.0,-9.24310336657,87.3949961841
7080.0,-9.49711952006,92.7006844226
7110.0,-9.7458129464,92.070550711
7140.0,-10.0036802997,89.2324111987
7170.0,-10.2806287662,94.8610687469
7200.0,-10.5808329287,94.9544135392
7230.0,-10.9020583243,91.6768160348
7260.0,-11.2355044906,100.328706292
7290.0,-11.5661834838,97.8562122624
7320.0,-11.873811849,95.4638232209
7350.0,-12.1341574601,95.5463000595
7380.0,-12.3207500467,89.0325829498
7410.0,-12.4068378137,89.9797934952
7440.0,-12.3674542144,86.5121195454
7470.0,-12.181449754,84.0664359059
7500.0,-11.8333448687,87.0620025627
7530.0,-11.3148703553,84.9540765871
7560.0,-10.6260822758,81.41331262
7590.0,-9.77596560497,78.8302964136
7620.0,-8.78247546347,73.0616250197
7650.0,-7.67200159118,74.1572361236
7680.0,-6.47828097378,76.2555721882
7710.0,-5.2408204011,73.9581011272
7740.0,-4.00292428166,74.7984233064
7770.0,-2.80944958544,73.6717852033
7800.0,-1.70442893234,62.6214635735
7830.0,-0.728712128251,58.2509536609
7860.0,0.0822241287375,60.2095963544
7890.0,0.700159276009,56.3801854886
7920.0,1.10558547791,54.7540472312
7950.0,1.2886465201,50.1965419176
7980.0,1.24950171399,57.4645733657
8010.0,0.998095286659,58.5379286021
8040.0,0.553350749229,60.1001909607
8070.0,-0.0581526600195,61.300846895
8100.0,-0.803930663745,65.1715916637
8130.0,-1.64765348949,62.2914170007
8160.0,-2.55137654454,69.0358552574
8190.0,-3.47779438564,74.1955595088
8220.0,-4.39237006107,80.6280782065
8250.0,-5.26520176094,84.8949823517
8280.0,-6.07250792179,85.9830854748
8310.0,-6.79763888054,87.959206857
8340.0,-7.43155712051,85.3703120364
8370.0,-7.97276325763,91.1993933096
8400.0,-8.42668644203,89.5350000084
8430.0,-8.80459142677,88.8760701408
8460.0,-9.12208970761,91.6776748473
8490.0,-9.39736857945,88.1416472532
8520.0,-9.64927083168,87.4526747729
8550.0,-9.89536744505,91.1613898793
8580.0,-10.1501659442,87.4243412331
8610.0,-10.4235864107,83.5362147358
8640.0,-10.7198182836,85.8913240399
8670.0,-11.0366438602,90.1533605756
8700.0,-11.3652812685,86.5396797842
8730.0,-11.6907629025,79.6120269379
8760.0,-11.9928273235,83.6471567864
8790.0,-12.2472659705,78.2873176061
8820.0,-12.4276336227,82.9108815488
8850.0,-12.5072048936,85.5452378245
8880.0,-12.4610408747,87.3007715108
8910.0,-12.2680208694,88.4480405611
8940.0,-11.9126950967,81.6084929796
8970.0,-11.3868250415,81.091968201
9000.0,-10.6904981516,74.3420823208
9030.0,-9.83273146195,60.5138327062
9060.0,-8.8315125942,70.2016959273
9090.0,-7.71326413387,60.6526192938
9120.0,-6.51175609389,50.9877113133
9150.0,-5.26652837499,49.1903995311
9180.0,-4.02091839221,46.2544760516
9210.0,-2.81981589516,41.5024189566
9240.0,-1.70728591634,47.8214639597
9270.0,-0.724210165403,44.7035345847
9300.0,0.0939033983902,46.9963066006
9330.0,0.71880372835,38.009893105
9360.0,1.13095341386,35.854048651
9390.0,1.32046770161,27.3582435997
9420.0,1.28747851982,29.7122781283
9450.0,1.04190398976,28.6843688167
9480.0,0.602642895535,29.3140700478
9510.0,-0.00374874733445,28.3489830251
9540.0,-0.744808296592,29.7800311392
9570.0,-1.58422591122,27.3256868674
9600.0,-2.48407482686,29.2606579175
9630.0,-3.40706680755,34.6268125029
9660.0,-4.31867907604,36.1223337029
9690.0,-5.18902151927,33.0682175506
9720.0,-5.99432368724,35.8620657921
9750.0,-6.71794374586,33.4570297145
9780.0,-7.3508512794,35.9145966513
9810.0,-7.89154950559,37.0003279758
9840.0,-8.34547105058,37.1107833479
9870.0,-8.7238794231,41.3517967184
9900.0,-9.042384727,40.9577064744
9930.0,-9.3191687819,40.5471261686
9960.0,-9.57306770676,40.2571947772
9990.0,-9.82164054859,38.9638456856
10020.0,-10.0793922169,41.548467998
10050.0,-10.3562228406,42.1323652084
10080.0,-10.6562980944,44.636174131
10110.0,-10.9774133165,48.9810901595
10140.0,-11.3107434894,50.6573028468
10170.0,-11.6412976744,53.5440652251
10200.0,-11.9488188935,55.5909057194
10230.0,-12.2090482845,56.8930402012
10260.0,-12.3955219555,61.3515441181
10290.0,-12.4814797627,61.0163421232
10320.0,-12.4419795571,65.8752948147
10350.0,-12.2558610559,64.5571037144
10380.0,-11.9076229338,59.9050143149
10410.0,-11.3889658776,58.051173598
10440.0,-10.7001359213,55.3022069195
10470.0,-9.849906033,52.4357625399
10500.0,-8.85626223763,49.9532439476
10530.0,-7.74570821693,44.9442905775
10560.0,-6.5518545615,44.4932002347
10590.0,-5.31427173806,42.1351112217
10620.0,-4.07627912052,42.8156689503
10650.0,-2.88269232478,43.3085978594
10680.0,-1.77755299731,42.9658190701
10710.0,-0.801722972153,40.2811682733
10740.0,0.00933132081943,46.1233659908
10770.0,0.62738397916,40.1881050904
10800.0,1.03292808468,37.9819310567
10830.0,1.2161076553,40.4665143124
10860.0,1.17708542463,34.289903883
10890.0,0.925794714684,39.456118284
10920.0,0.481200901734,39.2818628854
10950.0,-0.130212289442,40.9970566969
10980.0,-0.875842200511,49.1257720058
11010.0,-1.71944873821,51.3498936772
11040.0,-2.62304137268,56.8894644055
11070.0,-3.54926254732,53.2525058375
11100.0,-4.4636327917,48.8177142009
11130.0,-5.33628841094,53.0409281647
11160.0,-6.14341652817,59.0280761934
11190.0,-6.86826079603,52.016931032
11220.0,-7.50246284104,65.0464283014
11250.0,-8.04349342224,73.090652084
11280.0,-8.49738009367,78.3408843389
11310.0,-8.87518162254,78.0292225519
11340.0,-9.19238146537,79.6413477255
11370.0,-9.4677221635,81.3541562954
11400.0,-9.71943440716,82.3545528119
11430.0,-9.96550066551,76.9876641622
11460.0,-10.2202214745,82.0470575903
11490.0,-10.4935184772,83.968511645
11520.0,-10.7896343491,90.6314125373
11550.0,-11.106343836,84.896081793
11580.0,-11.4348652798,94.6715308423
11610.0,-11.7602250171,90.7996760656
11640.0,-12.0621662485,95.4581156764
11670.0,-12.3164760426,91.4973354329
11700.0,-12.4967332081,95.6708733948
11730.0,-12.5761775787,95.9878923905
11760.0,-12.5298929343,101.845585561
11790.0,-12.336718988,98.5659181062
11820.0,-11.9812869191,99.4623457401
11850.0,-11.4552945686,99.5794245433
11880.0,-10.758838042,100.720120993
11910.0,-9.90075398424,96.3596788681
11940.0,-8.89959253793,94.332846596
11970.0,-7.78103593591,93.3149846488
12000.0,-6.57960123332,90.8686372763
12030.0,-5.33383022191,86.5830762121
12060.0,-4.08815329188,82.9445808996
12090.0,-2.88550393555,79.0682759606
12120.0,-1.77377057454,74.9315304052
12150.0,-0.788660539767,70.5852192729
12180.0,0.0277114549078,70.2789784973
12210.0,0.652856202992,70.395743297
12240.0,1.06634538862,66.1692771974
12270.0,1.26458460727,62.7240030762
12300.0,1.23247416204,65.1044256779
12330.0,0.98715722971,71.6124370734
12360.0,0.559827090513,72.7461297216
12390.0,0.0349147873278,74.2636296725
12420.0,-0.696702749615,76.2716842245
12450.0,-1.53347437541,75.1553271736
12480.0,-2.25644943721,70.1785139019
12510.0,-2.24858630061,69.6875743959
12540.0,-3.82436890591,76.3097426624
12570.0,-4.96191892429,78.701431563
12600.0,-5.67376060292,84.1491086434
12630.0,-6.50524790447,84.8262255756
12660.0,-6.80263047009,80.2588947699
12690.0,-5.81161257851,76.6706171731
12720.0,-5.95925233876,82.2366621885
12750.0,-6.49766302195,85.0470531615
12780.0,-8.05730695898,79.0950506353
12810.0,-9.14399758007,84.3105454712
12840.0,-9.29306053437,83.4746913804
12870.0,-8.9295367116,82.3936293989
12900.0,-9.64290145906,88.3313938485
12930.0,-9.18199420928,82.0124792785
12960.0,-9.76691009914,82.0389040709
12990.0,-10.8592153197,87.6944068355
13020.0,-11.2813620975,90.4218074629
13050.0,-11.6459163841,88.9894250355
13080.0,-11.9387904703,91.7747955431
13110.0,-12.087904878,77.1153629888
13140.0,-12.3752220778,79.655051751
13170.0,-12.4978172041,68.0591880057
13200.0,-12.4450129274,73.7970885695
13230.0,-12.2734176108,63.0146515196
13260.0,-11.8943723051,60.1089094791
13290.0,-11.4067645242,52.2714332791
13320.0,-10.4958834718,48.7816384473
13350.0,-8.9500116143,40.3644253676
13380.0,-7.71419267151,37.6005489027
13410.0,-6.66104514666,35.3896176134
13440.0,-6.29890768841,36.3194264272
13470.0,-5.26642939041,34.8431401265
13500.0,-4.06801570981,32.5640253001
13530.0,-2.91594514777,32.3757793256
13560.0,-1.80078884662,29.0282612104
13590.0,-0.802917766057,22.7320167751
13620.0,0.0174162602117,19.8029506506
13650.0,0.665319121809,21.3540957322
13680.0,1.08167245041,20.7450310922
13710.0,1.32551150966,19.1463107106
13740.0,1.39863927785,17.9170281937
13770.0,1.4449909753,17.0130378951
13800.0,0.570377384994,17.3372576742
13830.0,-0.0537449138865,18.5662785825
13860.0,-0.846754081216,21.5259823097
13890.0,-1.6340280311,21.1674574849
13920.0,-2.1371919097,22.4016749493
13950.0,-2.54876077924,26.8912977592
13980.0,-3.253180965,25.9245867024
14010.0,-4.41365542722,26.8605233884
14040.0,-5.72007707272,30.7320229948
14070.0,-5.73802678077,30.3916484051
14100.0,-6.49133533526,32.6561076689
14130.0,-5.90998911428,30.1364994103
14160.0,-7.47797653831,34.7255750355
14190.0,-7.80161134735,35.8093082241
14220.0,-8.71389715271,37.7792355979
14250.0,-8.30413507893,42.1070672338
14280.0,-8.73278909835,41.1714504676
14310.0,-5.91509203055,38.6044232953
14340.0,-6.72105556168,39.6065787967
14370.0,-7.1650969113,41.2524494422
14400.0,-8.46305233788,41.4018585167
14430.0,-7.52775019471,39.4515383835
14460.0,-7.10480103555,42.9115445065
14490.0,-8.1777417863,44.8172845721
14520.0,-8.62185724653,46.3370849902
14550.0,-8.4196344864,45.3109806996
14580.0,-7.97859278658,46.2543816928
14610.0,-7.25517479192,45.8782704514
14640.0,-8.36397410788,48.0747931247
14670.0,-7.86642370154,48.5717750364
14700.0,-8.34525376016,47.4620796734
14730.0,-9.350376367,49.8156807855
14760.0,-7.27142255192,45.1329460927
14790.0,-5.20057725228,45.1431674677
14820.0,-4.89979737651,41.160302069
14850.0,-1.49196778308,36.1479000364
14880.0,-1.08155550744,32.9020746222
14910.0,-0.241743406481,29.2794070411
14940.0,2.10943210664,23.6373881061
14970.0,3.27652275095,21.8437679541
15000.0,5.30433737643,18.2333275233
15030.0,7.63004466935,14.6234233915
15060.0,8.04036197115,14.1463146924
15090.0,9.02936095949,12.1111512803
15120.0,10.6033758586,8.49157499543
15150.0,12.4354225999,6.08157211525
15180.0,13.0845416688,6.76255054064
15210.0,12.5566102746,7.33211123948
15240.0,10.9625510679,8.05843062584
15270.0,10.6150861699,7.23798966315
15300.0,10.0979970049,11.3921854708
15330.0,8.49748286489,16.2843377313
15360.0,7.26488749233,19.9150351117
15390.0,6.05590806456,24.7472613172
15420.0,4.77925475253,27.6118961563
15450.0,2.91282644078,30.642058033
15480.0,2.56054396093,35.3974501061
15510.0,3.52099581233,35.8287101459
15540.0,2.29147576179,36.377429285
15570.0,1.97367793399,39.1596774496
15600.0,2.37565505876,41.2572606709
15630.0,2.37586232464,40.1371292462
15660.0,1.74761292859,40.3920860561
15690.0,1.41622375741,41.4192074304
15720.0,0.764178277883,46.0031036396
15750.0,-0.494402304718,47.5572735662
15780.0,0.198484341169,51.7186029346
15810.0,0.774018971683,51.6710050634
15840.0,0.136131156795,51.8595748901
15870.0,-0.911252860242,51.8460831079
15900.0,0.167657077264,50.0342501576
15930.0,0.140989967834,52.0146970816
15960.0,-0.0981402910186,54.5758663342
15990.0,-0.0394339213015,54.351370366
16020.0,-0.349409657735,53.5339106838
16050.0,-0.285363093085,53.9228388134
16080.0,-0.495409085782,53.6917802857
16110.0,-1.02111722135,54.1450493926
16140.0,-0.947632798255,54.8682670965
16170.0,-0.97990903517,56.6626941443
16200.0,0.775607629769,60.7111803549
16230.0,1.54011202992,56.8325571757
16260.0,2.54232912797,66.5151036765
16290.0,2.93015988546,62.3509910517
16320.0,3.7910692698,61.1595646624
16350.0,5.59470536365,63.0888757959
16380.0,7.48465066578,65.7550017581
16410.0,9.5817882755,57.7286593155
16440.0,9.13320716095,56.8278206154
16470.0,9.39755616793,54.3884792962
16500.0,9.45112772221,61.0867764854
16530.0,10.900304756,56.3405659304
16560.0,11.6218865906,56.595407048
16590.0,12.3284984406,56.2060511371
